,SPY_open,SPY_high,SPY_low,SPY_close,VBM,ATR,weekly_range
0,209.2,209.7295,207.2,208.27,0.0,0.0,0.0
1,206.48,208.289,205.78,206.99,0.0,0.0,0.0
2,206.2,208.68,204.18,205.33,0.0,0.0,0.0
3,205.44,207.43,205.14,205.86,0.0,0.0,0.0
4,203.38,204.14,201.51,201.88,0.0,0.0,8.21950000000001
5,193.05,193.41,189.82,192.11,-67.23038142747876,2.827142857142854,0.0
6,193.85,194.55,191.14,193.66,-69.12498372116517,2.9378571428571427,0.0
7,194.53,194.86,188.38,188.87,-68.64153805433466,3.2364285714285734,0.0
8,189.55,193.26,187.66,191.89,-65.07265031652817,3.4571428571428595,0.0
9,186.79,188.76,185.52,187.83,-64.71813948591519,3.847142857142856,9.340000000000003
10,192.5,194.58,191.84,193.65,-49.06550486929776,4.4378571428571485,0.0
11,191.9,191.97,189.54,190.11,-50.785879979828486,4.487857142857147,0.0
12,191.37,191.78,187.1,191.23,-46.59133307423239,4.359285714285718,0.0
13,190.72,192.75,189.96,191.53,-46.14749999999998,4.158571428571433,0.0
14,190.97,191.6696,187.2,187.98,-45.08647813589473,4.022828571428578,7.480000000000018
15,185.75,186.12,182.8,185.35,-44.67578463371574,4.1135428571428605,0.0
16,183.38,186.94,183.2,185.35,-45.80200072714444,3.877828571428576,0.0
17,186.44,188.34,185.12,185.31,-45.29271934233065,3.8056857142857177,0.0
18,182.38,184.1,181.09,183.03,-46.079511998965955,3.817114285714289,0.0
19,184.93,186.65,183.96,186.65,-44.30623402672184,3.851400000000002,7.25
20,195.08,196.23,193.33,193.56,-52.14749500450837,2.9971428571428578,0.0
21,195.05,198.21,194.4542,198.21,-49.106781171514186,3.0621428571428573,0.0
22,197.7,199.06,197.25,199.03,-51.75966077066834,2.961428571428572,0.0
23,198.7,199.795,198.11,199.77,-54.168800087113055,2.7803571428571416,0.0
24,200.0,201.35,199.03,200.36,-57.280918799305006,2.687499999999998,8.019999999999982
25,199.4,201.07,199.25,200.63,-57.52478757811314,2.591785714285712,0.0
26,199.3,199.92,198.21,198.36,-59.858175026601494,2.513928571428569,0.0
27,199.36,199.79,198.43,199.41,-62.35770492381939,2.505357142857138,0.0
28,199.9,201.07,197.38,199.54,-60.99923198394017,2.6453571428571365,0.0
29,201.25,202.81,199.5179,202.76,-61.61511003435394,2.669792857142852,5.430000000000007
30,202.2,203.04,201.77,202.53,-64.51359072170246,2.571221428571422,0.0
31,201.32,202.5307,201.05,202.2,-66.95175036092044,2.37627142857142,0.0
32,201.62,203.82,201.55,203.39,-68.14735983154975,2.344128571428562,0.0
33,203.26,205.23,202.77,204.79,-72.3995826661127,2.3926999999999885,0.0
34,204.2,204.78,203.8,204.52,-75.56999930918293,2.2562714285714174,4.179999999999978
35,206.84,207.07,205.89,206.29,-97.94185950382202,1.7254071428571365,0.0
36,204.64,206.2642,203.89,204.14,-99.20435044239932,1.7910714285714238,0.0
37,204.27,206.49,203.98,206.46,-98.53702705938724,1.8082142857142836,0.0
38,205.18,205.56,203.09,203.89,-102.4047013002947,1.8732142857142853,0.0
39,205.32,205.85,203.87,204.48,-101.70949968286023,1.9439285714285717,3.9799999999999898
40,208.28,208.66,207.54,208.59,-111.9356951267748,1.8515785714285715,0.0
41,209.02,209.52,208.36,209.0,-111.95703435399716,1.7551499999999984,0.0
42,208.46,209.81,208.05,209.38,-109.73051888025402,1.6401499999999973,0.0
43,208.49,209.76,206.96,207.42,-110.3502077925851,1.6987214285714256,0.0
44,206.71,207.13,205.03,206.3,-111.36388230417899,1.7151499999999962,4.780000000000001
45,206.9,208.18,206.41,208.03,-109.52972126755127,1.6672928571428522,0.0
46,206.5,206.8,205.28,206.13,-106.84707908836414,1.713007142857139,0.0
47,205.0,205.85,204.42,204.96,-111.4149313394379,1.7637214285714253,0.0
48,205.57,205.98,204.47,204.95,-112.40209166212306,1.816428571428568,0.0
49,204.04,205.77,203.88,205.7,-110.37830539613286,1.788571428571426,4.300000000000011
50,205.58,206.4,205.36,205.89,-113.85453410784,1.7728571428571402,0.0
51,206.64,208.5,206.64,208.46,-109.30811828485757,1.8499999999999983,0.0
52,207.89,208.54,206.5,206.5,-110.74499465247138,1.8814285714285697,0.0
53,207.29,207.4899,205.37,206.55,-112.0333387675254,1.93427857142857,0.0
54,206.23,206.86,204.38,204.72,-115.50039433813467,2.009992857142856,4.159999999999997
55,204.95,207.34,204.89,206.81,-110.785711359633,2.114278571428571,0.0
56,206.44,206.8,204.23,204.82,-109.70878518338007,2.172850000000001,0.0
57,204.44,206.3,203.63,204.91,-111.21713058628096,2.163564285714289,0.0
58,204.0,204.54,202.78,204.24,-109.52411809971242,2.144992857142861,0.0
59,204.95,206.1,204.86,205.49,-105.79156880697427,2.1435642857142887,4.560000000000002
60,205.48,205.84,204.985,205.16,-105.77745807741299,2.0082071428571453,0.0
61,206.15,208.24,206.14,207.87,-103.50690172499114,2.1060642857142886,0.0
62,208.64,209.77,207.8691,209.26,-101.7181227760413,2.133985714285718,0.0
63,209.47,209.71,208.97,209.34,-105.87533692457986,2.051842857142861,0.0
64,209.55,210.25,209.47,210.21,-104.85146900317778,2.0425571428571465,5.264999999999986
65,210.71,211.77,210.51,211.39,-102.96551903069296,1.7904285714285717,0.0
66,211.56,212.34,211.5,211.7,-105.13069726440887,1.6740000000000006,0.0
67,211.8,212.52,211.6899,212.39,-108.43707997311814,1.542578571428572,0.0
68,211.49,212.22,211.19,212.04,-111.9107367689835,1.47615,0.0
69,210.43,210.86,209.43,210.03,-113.87940212068297,1.5297214285714287,3.0900000000000034
70,209.34,210.37,208.35,208.42,-115.06024096385529,1.6129357142857157,0.0
71,207.97,208.74,206.9199,208.09,-115.49863836088595,1.5229428571428574,0.0
72,208.57,209.36,207.53,207.78,-114.71135631306255,1.517878571428572,0.0
73,206.74,208.57,205.59,208.35,-113.39308694747976,1.6778785714285707,0.0
74,207.14,207.2,205.75,206.53,-113.29659793877383,1.7985928571428562,4.780000000000001
75,208.84,209.61,207.75,207.91,-111.05214610012327,1.910735714285715,0.0
76,208.26,208.92,207.78,208.41,-113.1554869918065,1.8785928571428567,0.0
77,208.69,209.5,207.93,208.03,-117.0638331774858,1.8700142857142847,0.0
78,209.83,210.87,209.27,210.87,-115.22555999015769,1.9257285714285726,0.0
79,204.0,210.8463,202.72,203.13,-107.84636632095847,2.401442857142858,8.150000000000006
80,201.59,201.6,198.65,199.53,-104.6549146563129,2.6535857142857133,0.0
81,201.66,203.23,201.12,203.22,-97.83466548202036,2.8585785714285685,0.0
82,204.83,206.93,204.72,206.71,-90.3318717221219,3.037864285714284,0.0
83,207.18,209.54,206.56,209.53,-88.9829947069618,3.064292857142856,0.0
84,209.29,210.49,209.29,209.79,-89.64465661198086,3.0057214285714275,11.840000000000003
85,213.16,214.07,212.95,213.45,-81.23183299228835,2.95567857142857,0.0
86,214.51,215.3,214.25,215.0,-83.15694534473393,3.0063928571428584,0.0
87,215.42,215.45,214.35,214.93,-77.42573117072916,2.9728214285714296,0.0
88,216.34,216.67,215.66,216.11,-73.13533119002702,2.8942499999999995,0.0
89,216.79,217.0125,215.308,215.84,-75.18269990791048,2.433857142857142,4.0625
90,215.95,216.6,215.67,216.41,-78.03077504299705,2.180285714285714,0.0
91,215.88,216.23,215.63,216.18,-82.66010176434362,1.9717142857142866,0.0
92,216.75,217.37,216.24,217.13,-83.5718856028744,1.791714285714286,0.0
93,216.92,217.22,215.75,216.22,-83.25446243254464,1.6838571428571438,0.0
94,216.39,217.3,216.1,217.25,-84.82581768918136,1.6838571428571438,1.740000000000009
95,217.0,217.06,215.97,216.64,-87.28177235340938,1.6267142857142878,0.0
96,216.53,217.17,215.76,216.75,-91.77013905335451,1.531714285714287,0.0
97,217.17,217.27,215.62,216.51,-94.82941543582275,1.5053214285714307,0.0
98,216.26,217.11,215.75,216.8,-95.730864879801,1.3596071428571455,0.0
99,216.45,217.54,216.13,217.15,-95.77549182599053,1.3624642857142877,1.9199999999999875
100,217.15,217.65,216.405,216.93,-99.69082263263812,1.3192500000000007,0.0
101,216.64,216.83,214.57,215.52,-111.60189836970542,1.4092500000000021,0.0
102,215.45,216.245,215.13,216.23,-119.83104226071399,1.3646071428571471,0.0
103,216.3,216.78,214.25,216.43,-122.51614874301657,1.4235714285714332,0.0
104,217.19,218.23,217.07,218.14,-127.95737122557715,1.4857142857142887,3.9799999999999898
105,218.39,218.52,217.74,218.05,-133.6275590928703,1.4857142857142887,0.0
106,218.12,218.76,217.8,218.22,-135.58566812943045,1.4692857142857159,0.0
107,218.29,218.4038,217.23,217.63,-138.21060052553983,1.448128571428573,0.0
108,218.25,218.94,217.95,218.68,-142.7090945326512,1.4559857142857149,0.0
109,218.26,218.71,217.99,218.41,-147.46592738045828,1.4159857142857146,1.710000000000008
110,218.89,219.5,218.88,219.09,-156.9807730738593,1.3931285714285724,0.0
111,218.56,218.68,217.96,217.96,-159.396740562736,1.3559857142857143,0.0
112,217.98,218.53,217.02,218.38,-160.3076544495727,1.3666999999999985,0.0
113,218.31,218.9,218.21,218.9,-159.69633710981728,1.315271428571427,0.0
114,218.34,218.75,217.74,218.56,-163.7714491008089,1.3091999999999981,2.4799999999999898
115,218.25,218.8,217.83,218.51,-167.74420746573236,1.2099142857142826,0.0
116,219.23,219.6,218.9,218.93,-169.27671505340905,1.208128571428568,0.0
117,218.8,218.91,217.36,217.88,-166.0254346897331,1.139557142857139,0.0
118,217.4,218.19,217.22,217.66,-167.52999664249657,1.0802714285714257,0.0
119,217.9,219.12,216.25,217.28,-160.30751998370752,1.2295571428571404,3.3499999999999943
120,217.43,218.665,217.4,218.34,-160.23388521840926,1.259914285714284,0.0
121,218.25,218.59,217.35,217.98,-160.28260110200912,1.264642857142856,0.0
122,217.64,217.75,216.465,217.44,-161.1974002774986,1.279285714285712,0.0
123,217.38,217.73,216.03,217.37,-159.37431634215727,1.3492857142857113,0.0
124,218.36,218.87,217.7,218.36,-158.64199945241936,1.3785714285714252,2.8400000000000034
125,214.1,214.88,213.03,213.41,-121.09821240799184,2.313928571428566,0.0
126,214.43,214.59,213.38,213.42,-119.78184845961722,2.311785714285709,0.0
127,214.22,216.03,213.44,215.82,-115.88781275221974,2.3899999999999966,0.0
128,216.99,217.53,216.71,217.18,-114.59912245712022,2.390714285714284,0.0
129,216.73,216.88,215.88,215.99,-115.61746445023043,2.37642857142857,4.5
130,215.02,215.23,214.01,214.24,-113.0862944162437,2.4278571428571434,0.0
131,214.03,215.68,213.62,215.57,-105.29201841903304,2.509285714285716,0.0
132,215.81,216.82,214.71,216.64,-105.52309425460015,2.59857142857143,0.0
133,216.39,216.87,214.04,214.68,-100.12363636363644,2.4250000000000034,0.0
134,215.67,217.12,215.36,216.3,-97.7268659387865,2.277857142857146,3.5
135,215.81,216.04,215.04,215.78,-99.4351851851852,2.0892857142857184,0.0
136,215.86,216.17,213.99,214.68,-99.39715161348482,2.087857142857146,0.0
137,215.37,216.13,215.33,215.63,-98.87350319618265,1.9785714285714318,0.0
138,215.39,216.04,214.735,215.78,-98.69712230215836,1.878214285714287,0.0
139,216.06,216.3,214.19,215.04,-100.21532164783349,1.8967857142857167,2.3100000000000023
140,216.14,216.7,215.985,216.16,-101.02751313329183,1.928928571428573,0.0
141,215.64,215.74,212.58,213.43,-97.57534128960255,1.9982142857142853,0.0
142,213.61,214.32,213.01,213.71,-95.80543879214211,1.9696428571428564,0.0
143,212.15,213.59,211.21,213.01,-94.73615635179155,2.055357142857141,0.0
144,214.14,214.69,213.03,213.12,-94.32578067067642,2.033928571428569,5.489999999999981
145,213.07,213.39,212.17,212.38,-99.59360932121103,1.9739285714285688,0.0
146,214.24,214.31,213.27,213.71,-105.24530744336566,1.9610714285714275,0.0
147,214.0,214.64,213.6,214.28,-110.30518402811676,1.833214285714283,0.0
148,213.85,214.53,213.11,213.88,-111.08317636561912,1.7603571428571396,0.0
149,212.95,214.08,212.76,213.98,-115.82327011788819,1.764642857142854,2.469999999999999
150,214.98,215.32,214.48,214.89,-118.83598776500362,1.7046428571428558,0.0
151,214.7,214.98,213.98,214.17,-120.58124798625273,1.6724999999999994,0.0
152,213.22,214.42,212.93,213.74,-121.34258567310769,1.6857142857142853,0.0
153,214.57,214.62,213.08,213.17,-121.4015077023927,1.644999999999998,0.0
154,213.13,213.93,211.71,212.54,-120.7321447866019,1.6849999999999983,3.609999999999985
155,212.95,213.19,212.36,212.55,-121.17061456172918,1.4885714285714269,0.0
156,212.9,212.99,209.6,211.01,-118.52123265911271,1.6371428571428563,0.0
157,210.67,211.1,209.23,209.74,-118.88399787347169,1.5921428571428566,0.0
158,210.01,210.24,208.46,208.78,-121.7398008352073,1.5992857142857133,0.0
159,208.91,209.89,208.38,208.55,-126.06633608815443,1.6199999999999986,4.810000000000002
160,211.47,213.19,211.3,213.15,-117.28554913294815,1.8135714285714255,0.0
161,212.72,214.77,212.38,214.11,-114.15871060466087,1.9099999999999986,0.0
162,212.47,217.1,212.34,216.44,-108.15716096324472,2.1485714285714272,0.0
163,217.35,218.31,215.22,216.92,-103.86244685876248,2.2749999999999977,0.0
164,216.13,216.7,215.32,216.42,-103.11086057872987,2.2935714285714255,7.009999999999991
165,216.99,217.27,215.72,216.59,-103.56057728826438,2.3328571428571405,0.0
166,217.0,218.28,216.8,218.28,-102.0459290187892,2.347142857142856,0.0
167,217.52,218.14,217.42,217.87,-107.82429457674606,2.298571428571429,0.0
168,218.04,219.06,217.92,218.99,-105.89327983951856,2.2250000000000005,0.0
169,219.04,219.27,218.29,218.5,-108.12083591971859,2.2357142857142884,3.5500000000000114
170,226.42,226.96,225.76,226.25,-122.9642069721995,1.3965785714285712,0.0
171,227.01,228.34,227.0,227.76,-121.48957829141708,1.4701499999999998,0.0
172,227.41,228.23,225.365,225.88,-126.24031821496206,1.602649999999999,0.0
173,226.13,227.81,225.8904,226.81,-127.52349037687249,1.67907857142857,0.0
174,225.99,226.08,224.67,225.04,-136.07750181356752,1.7490785714285713,3.670000000000016
175,226.9,227.0701,226.4163,226.46,-147.8201894963176,1.2931214285714288,0.0
176,226.47,227.45,226.01,226.46,-147.5160571503473,1.3259785714285701,0.0
177,226.38,227.1,225.59,227.1,-144.68883426057707,1.3595499999999987,0.0
178,226.5,226.75,224.955,226.53,-143.96220190172306,1.4641928571428562,0.0
179,226.75,227.4,226.69,227.05,-145.10403750151602,1.4656214285714262,2.494999999999976
180,228.18,228.2,226.41,227.55,-160.50956454947328,1.4735714285714303,0.0
181,227.01,227.6,226.32,227.53,-157.1481788190395,1.4621428571428592,0.0
182,228.28,228.59,226.94,227.62,-154.49772653927582,1.47214285714286,0.0
183,227.24,228.1,226.82,227.77,-150.26810720173222,1.4103571428571473,0.0
184,228.85,229.55,228.46,229.34,-147.01352295572795,1.475357142857147,3.230000000000018
185,228.89,229.326,228.54,228.93,-152.008855383921,1.4432142857142907,0.0
186,229.36,229.6556,228.72,228.94,-153.5950412135974,1.445757142857147,0.0
187,228.59,229.39,228.31,229.24,-156.79020689767023,1.4093285714285742,0.0
188,229.57,230.95,229.52,230.6,-160.43165665273776,1.4314714285714294,0.0
189,231.0,231.77,230.6216,231.51,-164.12908736442455,1.4054000000000022,3.460000000000008
190,236.61,237.31,236.35,237.11,-160.19516376834162,1.3009857142857137,0.0
191,236.71,236.95,236.015,236.47,-164.0189985346871,1.3123714285714303,0.0
192,238.4,240.32,238.37,239.78,-152.9895515936189,1.510228571428574,0.0
193,239.57,239.57,238.21,238.27,-157.24344577261624,1.500228571428575,0.0
194,238.19,238.61,237.73,238.42,-163.15910635592252,1.4795142857142898,4.305000000000007
195,237.48,238.12,237.01,237.71,-162.2466316117721,1.4688000000000037,0.0
196,237.39,237.77,236.76,237.0,-161.68095283957723,1.4302285714285756,0.0
197,237.31,237.64,236.4,236.56,-168.45041986976804,1.3938000000000028,0.0
198,236.71,237.24,235.74,236.86,-169.2205916402966,1.4077285714285739,0.0
199,237.95,238.02,236.59,237.69,-169.35172551499195,1.427014285714289,2.3799999999999955
200,237.59,237.86,237.24,237.81,-172.65613523622247,1.3570142857142895,0.0
201,237.22,237.24,236.19,236.9,-174.55418459198359,1.4220142857142914,0.0
202,237.56,239.44,237.29,238.95,-165.4196458511362,1.5077285714285762,0.0
203,239.12,239.2,238.1,238.48,-164.1204850416764,1.4875000000000032,0.0
204,237.75,237.97,237.03,237.03,-168.09496390603823,1.522500000000002,3.25
205,235.79,236.03,233.91,235.33,-146.13584554547555,1.8432142857142841,0.0
206,235.0,235.58,234.555,235.48,-144.07339449541274,1.7349999999999994,0.0
207,236.26,237.39,234.54,234.78,-138.535148404374,1.8599999999999994,0.0
208,234.96,236.04,234.425,235.44,-141.69160305343516,1.871785714285713,0.0
209,235.18,236.0,234.64,235.2,-143.2163342381683,1.8946428571428555,3.4799999999999898
210,237.17,237.41,234.5628,237.17,-126.95651808489637,1.8162285714285693,0.0
211,237.93,238.95,237.81,238.55,-126.04972225816016,1.8701571428571404,0.0
212,238.53,239.53,238.35,238.4,-125.50403435548111,1.750871428571427,0.0
213,238.74,238.95,237.98,238.6,-134.0841114434407,1.7047999999999999,0.0
214,238.93,238.93,237.93,238.08,-135.7502553878972,1.6790857142857132,4.967199999999991
215,238.66,239.17,238.195,238.68,-136.1858961184871,1.6480142857142823,0.0
216,238.82,238.98,238.3,238.77,-138.7637348380129,1.5537285714285665,0.0
217,238.29,238.8775,237.7,238.48,-145.35151734016503,1.5456928571428534,0.0
218,238.81,238.9225,237.78,238.76,-149.84018000513458,1.4858714285714245,0.0
219,239.16,239.72,238.68,239.7,-148.83085730411847,1.413014285714281,2.0200000000000102
220,239.77,239.92,239.17,239.66,-153.27760084925717,1.3601571428571393,0.0
221,239.94,240.19,239.04,239.44,-151.1937064636321,1.3158714285714268,0.0
222,239.37,239.87,239.15,239.87,-159.9755426795988,1.1955142857142838,0.0
223,239.31,239.57,238.13,239.38,-159.20581522943078,1.2333714285714268,0.0
224,239.05,239.4273,238.67,238.98,-168.3475135790034,1.0840928571428574,2.0600000000000023
225,239.49,240.44,239.45,240.3,-168.406950197542,1.061235714285715,0.0
226,240.64,240.67,239.63,240.08,-169.30532761450314,1.0512357142857138,0.0
227,238.09,238.64,235.75,235.82,-160.7813720093704,1.291235714285715,0.0
228,235.7,237.75,235.43,236.77,-158.96646732436938,1.3855214285714286,0.0
229,237.36,239.08,237.27,238.31,-153.58853451156577,1.4726642857142878,5.239999999999981
230,238.87,239.71,238.82,239.52,-155.40124813219663,1.5240928571428611,0.0
231,239.98,240.24,239.51,240.05,-161.68305641798412,1.4921285714285761,0.0
232,240.33,240.73,239.93,240.61,-164.19423537348376,1.4676642857142883,0.0
233,241.22,242.08,240.96,241.76,-164.40539207189425,1.4983785714285744,0.0
234,241.59,241.9,241.45,241.71,-174.1135759400187,1.4769500000000042,3.2600000000000193
235,244.02,244.3,243.76,243.99,-178.40210023118198,1.4621428571428592,0.0
236,243.34,243.98,243.12,243.21,-181.21238346249146,1.4500000000000028,0.0
237,243.61,243.92,242.83,243.66,-183.2815388851735,1.2185714285714286,0.0
238,243.8,244.33,243.17,243.78,-182.44117480381615,1.1357142857142881,0.0
239,244.07,245.01,241.95,243.41,-173.7920010844452,1.1892857142857167,3.0600000000000023
240,243.09,243.42,242.38,243.36,-175.15811177858376,1.16357142857143,0.0
241,243.98,244.61,243.5799,244.55,-174.93503166062703,1.2007142857142858,0.0
242,244.86,244.87,243.29,244.24,-171.09056243517367,1.2564285714285737,0.0
243,242.69,243.91,242.36,243.77,-167.75709126608433,1.2857142857142878,0.0
244,242.83,242.83,241.6337,242.64,-162.26697425026467,1.4061642857142869,3.2363
245,243.61,244.73,243.48,244.66,-162.02308745842276,1.5104500000000018,0.0
246,244.23,244.26,242.99,243.01,-160.44199284138597,1.541164285714286,0.0
247,243.46,243.59,242.41,242.95,-161.38239905968885,1.4868785714285724,0.0
248,242.96,243.53,242.64,242.84,-161.0393044858019,1.4597357142857175,0.0
249,242.88,243.51,242.47,243.13,-176.18179446835532,1.4954500000000013,2.319999999999993
250,243.93,244.38,243.045,243.29,-181.19213838003125,1.5286642857142871,0.0
251,243.01,243.38,241.31,241.33,-183.35253208010016,1.5986642857142885,0.0
252,242.51,243.715,242.23,243.49,-176.66574478367863,1.686164285714286,0.0
253,243.62,243.72,239.955,241.35,-165.8842222639984,1.7365214285714277,0.0
254,242.3,242.71,241.575,241.8,-162.81970892049756,1.7593785714285721,4.424999999999983
255,241.98,242.8,241.76,242.37,-151.65467901598265,1.6989285714285711,0.0
256,242.12,242.55,240.85,242.19,-150.08404198068794,1.7010714285714303,0.0
257,243.31,244.2,243.3,244.01,-144.2912353125794,1.7603571428571436,0.0
258,244.02,244.55,243.76,244.42,-144.50245918758438,1.753214285714287,0.0
259,244.4,245.97,244.31,245.56,-139.65605906486653,1.7975000000000014,5.1200000000000045
260,245.44,245.91,245.33,245.53,-144.11186075713988,1.7435714285714283,0.0
261,245.06,245.72,244.67,245.66,-148.3236384902517,1.6707142857142867,0.0
262,246.01,247.0,246.01,246.99,-146.9932833627628,1.5960714285714306,0.0
263,247.25,247.42,246.47,247.1,-148.49884359815448,1.395000000000002,0.0
264,246.43,246.91,246.18,246.88,-151.7476822698227,1.3635714285714289,2.75
265,246.81,246.98,246.28,246.82,-153.3890857262291,1.3007142857142864,0.0
266,247.7,247.8,247.16,247.42,-159.6887563221372,1.277142857142859,0.0
267,247.78,247.79,247.13,247.43,-166.19690235690234,1.1507142857142867,0.0
268,247.96,248.0,245.68,247.2,-163.24765056254134,1.1928571428571442,0.0
269,246.7,247.06,246.13,246.91,-166.43727598566312,1.1949999999999992,2.319999999999993
270,247.38,247.48,246.53,246.77,-166.83419483101406,1.1414285714285686,0.0
271,247.45,247.5,246.716,247.32,-169.17451760121716,1.0538571428571402,0.0
272,247.47,247.6,246.37,247.44,-169.52467615886974,1.0852857142857093,0.0
273,247.31,247.34,246.64,246.96,-176.02260763561827,1.023857142857139,0.0
274,247.52,247.79,246.97,247.41,-185.6110483800923,1.0417142857142818,1.4199999999999875
275,247.5,247.87,247.37,247.87,-204.78928183155352,1.0024285714285668,0.0
276,247.49,248.91,246.83,247.26,-200.31880977683352,1.0552857142857082,0.0
277,246.46,247.31,246.06,247.25,-202.3161950480043,1.0767142857142804,0.0
278,246.3,246.44,243.7,243.76,-192.5460122699388,1.2645714285714251,0.0
279,244.0,244.8,243.75,244.12,-200.44397983027935,1.2895714285714266,5.210000000000008
280,245.55,246.79,245.55,246.54,-192.57590246234776,1.4102857142857101,0.0
281,247.0,247.0,246.16,246.51,-193.30387205387234,1.4231428571428535,0.0
282,247.09,247.57,246.45,246.94,-196.1693795129119,1.3374285714285687,0.0
283,246.26,246.6,243.09,243.09,-189.44212721585015,1.5359999999999974,0.0
284,242.95,244.189,242.2,242.71,-183.53497746549877,1.610214285714284,5.3700000000000045
285,242.64,243.2,241.83,242.9,-184.1932661643106,1.652071428571426,0.0
286,243.6,245.62,243.55,245.44,-172.56753519814797,1.758499999999998,0.0
287,244.34,245.05,244.16,244.56,-172.75560140729613,1.7927857142857115,0.0
288,245.0,245.18,243.75,243.99,-171.89929538437215,1.835642857142856,0.0
289,244.89,245.61,244.39,244.56,-168.51489769986804,1.9156428571428563,3.789999999999992
290,245.17,245.2,244.09,244.57,-162.99899362630018,1.8463571428571421,0.0
291,243.13,245.15,242.93,244.85,-157.1310803764311,1.9156428571428563,0.0
292,244.86,246.32,244.62,246.01,-156.70529114726938,1.7834999999999976,0.0
293,246.75,247.77,246.0473,247.49,-151.65894566792602,1.8342142857142838,0.0
294,247.98,248.33,247.67,247.84,-157.5121266589518,1.7034999999999993,5.400000000000006
295,249.62,250.12,249.28,249.72,-154.6001128862057,1.4071428571428604,0.0
296,250.0,250.07,249.6,249.97,-158.5864721551445,1.2821428571428604,0.0
297,250.07,250.19,248.92,250.06,-164.72232969640677,1.2514285714285762,0.0
298,249.87,249.98,249.185,249.39,-162.63735697350776,1.1882142857142892,0.0
299,249.06,249.63,249.02,249.44,-165.91006423982864,1.1717857142857164,1.2700000000000102
300,249.16,249.5532,248.08,248.93,-177.21481629971154,1.0705857142857147,0.0
301,249.45,249.7,248.805,249.08,-182.23712927014182,1.0473714285714277,0.0
302,249.89,250.49,248.87,250.05,-184.1183581766134,1.1009428571428563,0.0
303,249.73,250.44,249.63,250.35,-195.80438558402076,1.1009428571428563,0.0
304,250.37,251.32,250.13,251.23,-195.8340892323693,0.991657142857142,3.2399999999999807
305,251.5,252.32,251.2926,252.32,-196.87534368775425,1.0066571428571425,0.0
306,252.48,252.89,252.23,252.86,-200.90894212732738,1.009514285714285,0.0
307,252.72,253.44,252.56,253.16,-203.00032970656108,1.020942857142856,0.0
308,253.54,254.68,253.196,254.66,-206.76453805052634,1.020942857142856,0.0
309,254.16,254.7008,253.85,254.37,-213.02593852103735,1.0152857142857121,3.4081999999999937
310,254.65,254.7,253.65,253.95,-217.37399262395851,1.0567142857142824,0.0
311,254.59,255.05,253.98,254.62,-214.95938261575947,1.0445714285714263,0.0
312,254.53,255.02,254.32,255.02,-230.81962418659052,1.0320714285714274,0.0
313,254.68,255.06,254.365,254.64,-235.9953781355995,1.0381428571428566,0.0
314,255.15,255.27,254.64,254.95,-239.71943284817007,0.9779142857142874,1.6200000000000045
315,255.2,255.51,254.82,255.29,-241.06161925271053,0.9632714285714314,0.0
316,255.24,255.52,254.98,255.47,-264.3888179834488,0.8861285714285755,0.0
317,255.92,255.95,255.5,255.72,-270.91632131943527,0.862557142857146,0.0
318,254.83,255.83,254.35,255.79,-262.56333589235874,0.8832714285714331,0.0
319,256.73,257.14,255.7744,257.11,-255.15109511470916,0.9029571428571452,2.789999999999992
320,257.51,257.51,256.02,256.11,-259.553077911735,0.9622428571428604,0.0
321,256.56,256.83,256.15,256.56,-260.6553075779382,0.9508142857142872,0.0
322,256.23,256.31,254.0,255.29,-241.07015702194204,1.0251000000000008,0.0
323,256.01,256.3,255.48,255.62,-244.36604581872623,1.0364714285714314,0.0
324,256.47,257.89,255.6254,257.71,-231.1723914361022,1.1236142857142883,3.8899999999999864
325,257.09,257.6,256.41,256.75,-225.86413297740629,1.137899999999998,0.0
326,257.21,257.44,256.805,257.15,-232.32012557271372,1.1371857142857107,0.0
327,258.1,258.43,257.07,257.49,-228.8702463184402,1.1846857142857121,0.0
328,257.43,257.75,256.19,257.59,-229.5844747903554,1.251114285714282,0.0
329,257.82,258.5,257.3,258.45,-226.18374631207595,1.2875428571428529,2.3100000000000023
330,258.31,259.0,258.22,258.85,-229.1823908145403,1.3046857142857067,0.0
331,259.0,259.35,258.09,258.67,-230.3736989189152,1.3603999999999965,0.0
332,258.46,259.22,258.15,259.11,-224.97589858946887,1.3311142857142844,0.0
333,257.74,258.39,256.36,258.17,-212.99491668112583,1.4300000000000008,0.0
334,257.71,258.2926,257.37,258.09,-215.0681431005109,1.3894714285714278,2.990000000000009
335,257.32,258.59,257.27,258.33,-212.16460384858595,1.4323285714285723,0.0
336,257.44,257.85,256.52,257.73,-211.00046609475544,1.3787571428571437,0.0
337,256.62,257.22,255.63,256.44,-204.05822942491085,1.4566142857142867,0.0
338,257.52,259.04,257.4748,258.62,-191.8345203328982,1.4801857142857184,0.0
339,258.2,258.5882,257.77,257.86,-192.055894875345,1.448042857142866,3.410000000000025
340,265.6,266.38,265.4793,266.31,-152.9824023274563,1.8361785714285719,0.0
341,266.6,267.32,266.345,266.78,-154.1038322662861,1.7699428571428573,0.0
342,267.05,267.56,266.65,266.75,-153.49850258644113,1.793514285714289,0.0
343,267.09,267.22,265.6,265.66,-156.04523919961383,1.8578000000000015,0.0
344,265.54,267.04,265.39,266.51,-153.29153961939303,1.9220857142857182,2.170000000000016
345,273.32,274.1,272.98,273.92,-159.3000221154608,1.4067857142857219,0.0
346,274.43,275.25,274.081,274.54,-166.62929505953875,1.3525000000000043,0.0
347,273.71,274.42,272.92,274.12,-180.67841189217322,1.3653571428571476,0.0
348,274.75,276.12,274.56,276.12,-182.6990408259639,1.3910714285714343,0.0
349,276.43,278.11,276.0819,277.92,-181.3803815321667,1.439150000000004,5.189999999999998
350,285.99,286.43,284.5,284.68,-146.58948458283598,2.1843999999999943,0.0
351,283.2,284.736,281.22,281.76,-144.63397679268496,2.34054285714285,0.0
352,282.75,283.3,280.68,281.9,-142.7697463898846,2.4119714285714218,0.0
353,281.1,283.06,280.68,281.58,-137.41515079774763,2.4391142857142785,0.0
354,280.0,280.23,275.41,275.45,-129.26296830981005,2.734964285714276,11.019999999999982
355,273.47,275.85,263.31,263.93,-111.0793409349529,3.351392857142851,0.0
356,259.73,269.7,258.7,269.13,-95.63896006940959,3.917107142857138,0.0
357,268.46,272.36,267.58,267.67,-94.20331128084563,4.159964285714283,0.0
358,268.0,268.17,257.59,257.63,-88.46819739728811,4.824964285714283,0.0
359,260.94,263.61,252.92,261.5,-79.56786752541724,5.40425,22.930000000000035
360,275.9,278.01,275.26,277.9,-55.522338537087066,5.578178571428585,0.0
361,278.11,278.92,274.36,274.43,-50.560220923096765,5.118178571428585,0.0
362,275.65,276.19,271.29,271.65,-51.79845280745694,5.126750000000009,0.0
363,271.5,273.17,266.0,267.7,-51.7661488143908,4.883178571428579,0.0
364,265.75,269.72,264.82,269.08,-50.96716471325039,4.469607142857151,14.100000000000023
365,267.75,272.89,267.61,272.19,-50.471066388442516,4.4531785714285785,0.0
366,273.28,273.39,271.18,272.88,-52.06460905802276,4.3746071428571485,0.0
367,270.39,273.18,270.2,272.78,-51.772604964298814,4.180321428571436,0.0
368,273.52,274.24,272.42,274.1,-51.51134197729754,4.005321428571433,0.0
369,275.69,278.87,275.34,278.87,-49.29780184286638,4.111428571428576,11.259999999999991
370,279.2,279.91,278.0801,278.52,-49.69436922296612,4.0157071428571465,0.0
371,279.84,280.41,276.03,276.72,-52.35154436391335,3.98713571428572,0.0
372,277.81,278.02,274.67,275.3,-57.76889905611645,3.9828500000000013,0.0
373,275.85,276.61,274.43,275.0,-60.63782314408239,3.830707142857144,0.0
374,274.45,275.39,274.14,274.2,-61.430588334457084,3.684278571428572,6.270000000000039
375,262.56,263.13,254.67,257.47,-65.09793671781311,4.931835714285713,0.0
376,258.92,261.31,256.84,260.77,-64.14416781250746,4.938264285714283,0.0
377,256.76,264.355,256.6,263.56,-60.85794629987855,5.252907142857142,0.0
378,265.55,266.64,264.32,265.64,-59.552485388143836,5.317192857142855,0.0
379,263.42,265.11,258.0,259.72,-59.671770613563496,5.773621428571425,11.969999999999999
380,267.28,267.89,265.35,266.57,-58.35525819331244,3.881071428571423,0.0
381,267.76,267.9762,261.28,262.98,-54.041069189679,3.8054428571428542,0.0
382,262.94,264.13,260.85,263.63,-55.56748547454243,3.8197285714285676,0.0
383,264.86,267.2452,264.29,266.31,-55.79532485099549,3.5322428571428555,0.0
384,267.0,267.34,265.5,266.56,-55.71654277840371,3.2979571428571433,7.126199999999983
385,267.26,267.89,264.43,264.51,-58.82467435751622,3.1850999999999976,0.0
386,263.87,265.1,262.11,264.98,-60.5294191972371,3.237957142857141,0.0
387,264.77,265.68,262.76,263.2,-64.45248862166962,3.2150999999999987,0.0
388,262.28,263.36,259.05,262.62,-68.2029042445489,3.2708142857142826,0.0
389,261.52,266.7892,261.15,266.02,-66.47485334842035,3.45575714285714,8.839999999999975
390,266.91,268.02,266.11,266.92,-67.69182856637538,3.3457571428571384,0.0
391,266.48,267.325,265.15,266.92,-70.84577399504353,3.3989714285714245,0.0
392,267.67,269.865,267.09,269.5,-71.2499064503522,3.418614285714284,0.0
393,270.34,272.39,270.22,272.02,-72.28373800916576,3.378614285714284,0.0
394,272.25,273.15,271.58,272.85,-73.63481931546715,3.309328571428572,8.0
395,273.34,274.08,272.36,272.98,-80.45038409926762,2.9538857142857102,0.0
396,271.52,271.61,270.03,271.1,-83.34316117082572,2.9303142857142865,0.0
397,271.11,272.76,271.11,272.24,-85.19944972345797,2.7906571428571403,0.0
398,271.93,273.23,271.13,272.01,-85.75180346398061,2.8092285714285725,0.0
399,271.61,272.03,270.93,271.33,-87.17980402415657,2.640657142857143,4.050000000000011
400,272.99,273.98,271.3512,273.37,-87.09359946589073,2.6163714285714303,0.0
401,273.94,274.25,272.24,272.61,-90.96595307387943,2.5513714285714286,0.0
402,271.19,273.39,270.99,273.36,-92.76022933656222,2.4149428571428553,0.0
403,272.95,273.22,270.78,272.8,-91.51813766339548,2.1964285714285716,0.0
404,272.15,272.86,271.58,272.15,-95.34207495884328,2.1450000000000022,3.4700000000000273
405,274.51,275.185,274.26,274.9,-102.15947715466726,2.4392857142857207,0.0
406,275.02,275.53,274.18,275.1,-102.64242680477744,2.3250000000000006,0.0
407,275.9,277.52,275.09,277.4,-102.79985452203923,2.3800000000000034,0.0
408,277.98,278.28,276.34,277.37,-106.05246580818657,2.3685714285714305,0.0
409,276.78,278.25,276.66,278.19,-107.29200793704759,2.403571428571431,4.099999999999966
410,278.42,279.37,278.31,278.56,-113.22264660794552,2.298571428571429,0.0
411,279.05,279.33,278.19,278.92,-121.47302032235464,2.2364285714285717,0.0
412,279.21,279.48,277.8,278.03,-121.97004933051446,2.1850000000000023,0.0
413,279.01,279.33,278.0599,278.73,-120.64167486803257,2.093571428571429,0.0
414,276.65,277.51,275.35,277.13,-123.76313920454547,2.243571428571426,4.1299999999999955
415,275.47,276.7,274.95,276.56,-124.0481927710843,2.085714285714285,0.0
416,273.98,275.75,273.53,275.5,-123.78132118451016,2.009999999999999,0.0
417,276.27,276.72,275.59,275.97,-125.85433975605419,1.928928571428571,0.0
418,275.98,275.98,273.68,274.24,-128.30758226037182,1.878928571428572,0.0
419,275.67,275.785,274.49,274.74,-130.48221485529942,1.8760714285714317,3.1900000000000546
420,273.45,273.6162,269.1,271.0,-124.31106243154419,2.1825000000000045,0.0
421,271.61,272.56,270.79,271.6,-123.37382321086373,2.1353571428571456,0.0
422,272.27,273.865,269.18,269.35,-120.58049959709898,2.3314285714285745,0.0
423,269.26,271.75,268.49,270.89,-117.86255924170607,2.45071428571429,0.0
424,272.08,273.66,271.1495,271.28,-116.29150306266662,2.5642857142857207,5.375
425,276.56,277.96,276.5,277.9,-114.40333975594089,2.8232142857142923,0.0
426,278.4,279.01,278.08,278.9,-116.06358668653743,2.686071428571434,0.0
427,277.17,278.04,276.52,276.86,-115.8473482062596,2.7689285714285745,0.0
428,278.29,279.43,277.6,279.37,-109.42039900648972,2.7882142857142873,0.0
429,279.19,279.93,278.66,279.59,-111.90889052167516,2.768571428571428,3.430000000000007
430,279.66,279.803,278.84,279.34,-111.88955996548736,2.434500000000002,0.0
431,278.48,280.91,278.41,280.47,-111.0539736506585,2.4866428571428605,0.0
432,280.57,281.18,280.06,281.06,-111.24382342354112,2.2320000000000033,0.0
433,280.31,280.74,279.46,280.0,-111.35015752379071,2.113428571428577,0.0
434,279.8,280.48,279.5,279.68,-111.94717303459346,1.9855714285714328,2.769999999999982
435,279.46,280.43,279.06,280.2,-113.4823127912316,1.8834285714285752,0.0
436,281.79,282.56,280.63,281.61,-116.80650113469464,1.8691428571428617,0.0
437,281.37,284.37,281.28,284.01,-116.1533909727469,1.9270000000000047,0.0
438,283.15,284.11,283.09,283.34,-121.30210104032052,1.7766428571428645,0.0
439,283.73,283.82,280.38,281.42,-115.97103918228248,1.8409285714285812,5.310000000000002
440,281.51,281.69,279.36,279.95,-118.67677396116414,1.9280714285714364,0.0
441,280.7,282.02,280.38,281.33,-117.26863951430911,1.905928571428579,0.0
442,281.48,282.13,280.1315,280.86,-124.62272370452773,1.8651071428571495,0.0
443,279.44,282.58,279.16,282.39,-121.49165848871428,2.0186785714285764,0.0
444,282.55,283.6577,282.33,283.6,-128.72852160372005,2.0447285714285743,4.497699999999952
445,283.64,284.99,283.2015,284.64,-130.68651234787603,1.9939071428571455,0.0
446,285.4,286.01,285.24,285.58,-133.3443231608741,2.0117642857142886,0.0
447,285.39,285.91,284.94,285.46,-138.66276645064156,1.9667642857142889,0.0
448,285.54,285.97,284.915,285.07,-144.50014685989547,1.9721214285714308,0.0
449,283.42,284.055,282.36,283.16,-146.72538566535312,2.0678357142857147,3.6499999999999773
450,283.49,284.16,281.77,282.1,-148.7470523312966,2.069978571428574,0.0
451,282.94,284.17,282.05,283.9,-147.04061213193893,2.000692857142858,0.0
452,282.35,282.54,280.16,281.78,-139.1866062784031,2.194978571428566,0.0
453,283.38,285.04,283.36,284.06,-137.10448264048563,2.1821214285714268,0.0
454,283.76,285.5601,283.37,285.06,-137.1358630997771,2.1721285714285687,5.400099999999952
455,285.58,285.97,285.06,285.67,-139.30639167024967,2.0892714285714282,0.0
456,286.26,287.31,285.7135,286.34,-138.3814227076849,2.0636642857142857,0.0
457,285.89,286.76,285.575,286.17,-143.05487534690613,1.9040214285714316,0.0
458,285.94,286.94,285.43,285.79,-143.11213467888751,1.9170428571428602,0.0
459,286.46,287.67,286.38,287.51,-141.36572226656008,1.9235785714285742,2.6100000000000136
460,288.86,289.9,288.68,289.78,-136.16115125114874,1.9964357142857156,0.0
461,290.3,290.4175,289.4,289.92,-135.12766465534574,1.999828571428574,0.0
462,290.16,291.74,289.8854,291.48,-134.6077692498988,2.0569428571428596,0.0
463,290.94,291.36,289.63,290.3,-140.26895088934197,1.9955142857142911,0.0
464,289.84,290.81,289.29,290.31,-136.79099060590835,1.9333714285714296,3.0600000000000023
465,290.82,290.86,289.03,289.34,-150.2170379727904,1.7782500000000059,0.0
466,289.55,291.58,289.55,290.91,-149.58987579095353,1.8655714285714322,0.0
467,290.98,291.69,290.825,291.22,-154.10768121641084,1.7948857142857182,0.0
468,292.64,293.94,291.2363,293.58,-150.46939237965742,1.8570285714285717,0.0
469,293.17,293.22,291.81,291.99,-156.7321875605827,1.8748857142857145,4.910000000000025
470,291.41,291.5,290.37,291.02,-161.90555182077716,1.8741714285714295,0.0
471,291.53,291.65,290.4833,290.75,-165.11133634873917,1.820364285714285,0.0
472,290.89,292.24,289.41,289.88,-159.36564751820728,1.8446499999999975,0.0
473,290.41,291.91,290.1,290.69,-158.6477913982785,1.8475071428571417,0.0
474,290.01,291.28,289.95,290.72,-158.2214395773717,1.8396499999999978,2.829999999999984
475,292.12,292.93,290.98,291.73,-157.21835685921175,1.8135785714285686,0.0
476,291.57,292.355,291.14,291.56,-159.57802301923329,1.7882214285714286,0.0
477,292.74,293.21,291.32,291.72,-159.48288024077513,1.7861928571428547,0.0
478,291.22,291.24,287.66,289.44,-152.57251925249926,1.9854785714285705,0.0
479,289.65,290.27,286.22,287.82,-147.25308102060566,2.142621428571423,6.989999999999952
480,287.06,288.22,285.5,287.82,-147.15116817703134,2.1769071428571385,0.0
481,287.43,288.86,286.77,287.4,-144.23990976447854,2.26440714285714,0.0
482,286.91,286.91,277.88,278.3,-128.72415855882875,2.7501214285714264,0.0
483,277.15,278.9,270.36,272.17,-118.32526360855738,3.2336928571428536,0.0
484,276.86,277.09,272.37,275.95,-112.20239743977653,3.4694071428571363,18.5
485,275.54,277.04,274.3,274.4,-112.17805737448032,3.581785714285709,0.0
486,276.56,280.82,276.07,280.4,-102.81137158627155,3.8382142857142827,0.0
487,280.44,281.15,277.56,280.45,-102.12262347187327,3.9496428571428503,0.0
488,279.41,280.07,274.97,276.4,-98.38640628412048,4.24607142857142,0.0
489,277.16,279.3,275.47,276.25,-96.26681548139214,4.361785714285706,6.849999999999966
490,277.0,277.36,274.41,275.01,-93.3364206755847,4.485714285714274,0.0
491,270.87,274.87,268.61,273.61,-88.03890726899108,4.807857142857131,0.0
492,273.33,273.76,264.7,265.32,-84.03038221476075,5.164999999999988,0.0
493,267.31,271.81,266.23,270.08,-77.94753531277041,5.339285714285706,0.0
494,265.92,271.0,262.29,265.33,-70.36049788305877,5.767142857142845,15.069999999999993
495,268.81,270.25,259.85,263.86,-62.72469781535977,6.360714285714271,0.0
496,263.73,268.12,263.12,267.77,-61.74586285550952,6.037857142857129,0.0
497,270.71,273.23,270.12,270.63,-58.3565578730787,5.817857142857134,0.0
498,271.64,273.73,270.38,273.51,-60.01799847334384,5.705714285714281,0.0
499,274.75,275.23,269.59,271.89,-58.675360168664405,5.912857142857141,15.379999999999995
500,272.48,274.01,271.35,273.39,-56.143282197921145,5.644285714285709,0.0
501,273.36,275.3,273.25,275.12,-55.80438735636635,5.534285714285711,0.0
502,277.55,281.1,277.08,281.01,-52.19597014925377,5.570000000000001,0.0
503,280.11,281.22,279.22,280.5,-51.70919394526885,5.439285714285717,0.0
504,279.0,279.24,276.18,277.76,-48.931160229217866,5.53714285714286,9.870000000000005
505,277.24,277.46,271.99,272.57,-51.123080314497784,5.49214285714286,0.0
506,273.06,275.325,271.25,272.06,-48.91847648150173,5.136071428571431,0.0
507,274.18,274.61,268.45,270.2,-47.313147016217414,5.112500000000003,0.0
508,268.76,273.54,267.0102,273.02,-49.272909977130475,4.956771428571435,0.0
509,271.74,274.75,271.21,273.73,-52.09354367128803,4.466771428571438,10.449799999999982
510,263.37,265.1613,258.62,264.07,-54.28684114640344,5.317578571428571,0.0
511,267.62,267.87,262.48,264.13,-53.77731487567368,5.203864285714283,0.0
512,267.45,269.0,265.37,265.46,-53.11051099882698,5.126721428571423,0.0
513,266.45,267.49,264.12,265.37,-54.555104283316275,5.151007142857139,0.0
514,262.92,264.03,259.85,260.47,-54.440638049751854,5.406007142857139,10.379999999999995
515,252.76,255.95,251.69,254.38,-39.60749139690039,7.104321428571429,0.0
516,256.86,257.31,254.0,256.77,-38.733209749166164,6.8318214285714305,0.0
517,257.56,258.91,256.19,257.97,-37.34536204635582,6.692535714285719,0.0
518,256.31,259.16,255.5,258.88,-34.98069432704642,6.236107142857151,0.0
519,257.65,259.0098,257.03,258.98,-33.526911554184665,5.879664285714294,7.470000000000027
520,263.38,263.83,261.79,263.76,-49.079921761723554,3.280457142857147,0.0
521,263.93,264.55,262.48,263.41,-52.64708200417312,3.1918857142857178,0.0
522,265.09,268.52,264.25,267.58,-52.60428324736831,3.3625999999999983,0.0
523,267.5,270.47,267.27,269.93,-54.31254739941934,3.329742857142857,0.0
524,270.13,271.2,269.18,270.06,-57.835003603238974,3.3326142857142833,9.409999999999968
525,270.14,272.03,269.36,271.96,-63.15192215019664,3.339757142857138,0.0
526,272.47,273.44,271.88,273.1,-69.07911606576116,3.215471428571423,0.0
527,272.8,273.34,271.92,272.74,-73.82894013079199,3.2014285714285626,0.0
528,270.93,271.55,268.29,270.14,-71.17969416130016,3.236428571428559,0.0
529,268.72,270.58,267.83,270.47,-73.36669367195623,3.145714285714271,5.610000000000014
530,280.69,281.31,279.43,279.52,-92.22147685914386,2.367292857142855,0.0
531,279.13,280.3,278.9,279.32,-93.68631950744332,2.355864285714286,0.0
532,278.53,279.59,277.48,279.2,-96.51166253735204,2.40515,0.0
533,278.97,279.45,278.32,278.68,-103.0547038816707,2.1680071428571432,0.0
534,280.44,280.88,278.82,280.42,-108.2576995619801,2.128721428571428,3.829999999999984
535,281.65,281.87,276.84,279.4,-104.6542729251246,2.3837214285714277,0.0
536,279.55,279.76,278.41,279.02,-107.19986059756593,2.20157857142857,0.0
537,279.16,279.16,276.97,277.33,-113.36721045045692,2.2272928571428565,0.0
538,276.84,276.99,274.07,275.01,-112.60150496589395,2.262292857142857,0.0
539,272.92,274.65,272.42,274.46,-117.85378884320828,2.230864285714282,9.449999999999989
540,275.24,278.62,275.23,278.44,-113.61520012774304,2.377292857142858,0.0
541,279.09,280.07,278.85,279.49,-115.30858816361548,2.3744357142857138,0.0
542,280.49,283.3052,280.3,281.34,-112.80275843536609,2.49945,0.0
543,281.33,281.84,280.6662,281.16,-113.39759922415692,2.4434999999999962,0.0
544,280.56,282.21,280.33,281.31,-112.42534850369309,2.422785714285709,8.075199999999995
545,284.7,286.16,284.4,285.83,-100.98771779732338,2.9974499999999984,0.0
546,286.04,286.23,285.09,285.97,-102.5297095117477,2.806364285714287,0.0
547,287.33,287.76,285.75,286.42,-102.23007929139419,2.86609285714286,0.0
548,286.8,287.459,286.01,287.18,-102.9640544738978,2.835307142857147,0.0
549,287.95,288.63,287.6,288.57,-101.35537528062449,2.8417357142857163,4.230000000000018
550,289.17,290.435,289.07,290.27,-123.47347616518628,1.6089928571428678,0.0
551,290.68,293.14,290.42,292.88,-120.98420927341466,1.7325642857142936,0.0
552,292.76,293.16,292.07,292.23,-123.00751230463652,1.6668500000000108,0.0
553,292.12,292.78,290.73,292.05,-125.14547918787856,1.709778571428578,0.0
554,292.12,293.49,291.2401,293.41,-125.21531534771529,1.766914285714295,4.420000000000016
555,293.53,294.45,293.41,293.87,-134.03195778348697,1.7312000000000052,0.0
556,293.52,294.34,291.92,294.02,-141.98885732463617,1.7547714285714286,0.0
557,294.76,294.95,291.8,291.81,-143.38421662289397,1.902635714285712,0.0
558,291.68,292.7,289.52,291.18,-143.39882114302512,2.0396357142857124,0.0
559,292.8,294.34,291.2998,294.03,-144.0151840544211,2.103921428571421,5.430000000000007
560,289.24,293.31,288.9,292.82,-136.03971043862174,2.379278571428561,0.0
561,290.15,290.81,285.81,287.93,-127.52511090439546,2.772135714285704,0.0
562,287.56,289.43,286.87,287.53,-130.3697390982924,2.7810642857142756,0.0
563,285.2,287.33,283.3,286.66,-126.39575592678203,2.9646357142857034,0.0
564,285.64,288.94,282.3,288.1,-116.4729320785178,3.341421428571416,11.009999999999991
565,282.39,283.49,279.93,280.86,-108.18586985158522,3.7199928571428456,0.0
566,282.01,285.1,281.85,283.4,-104.25867090983107,3.944992857142844,0.0
567,281.6,285.77,281.36,285.06,-100.20372615130752,4.113564285714274,0.0
568,285.83,289.21,285.76,287.7,-96.88771762650643,4.249285714285699,0.0
569,285.13,288.6,285.1207,285.84,-93.28475279591129,4.4235214285714175,9.279999999999973
570,284.06,285.962,283.12,283.95,-91.73573653108102,4.453664285714276,0.0
571,285.83,286.93,285.55,286.51,-91.91851454109344,4.441521428571422,0.0
572,285.43,286.69,285.1,285.63,-91.11261143401822,4.3279499999999915,0.0
573,283.16,283.21,280.57,282.14,-85.65070905281691,4.463664285714279,0.0
574,283.75,284.2,282.09,282.78,-85.5426053793388,4.247949999999995,6.360000000000014
575,275.3,276.5521,273.09,274.57,-79.42568499911643,3.4148857142857105,0.0
576,277.11,280.68,276.62,280.53,-76.2025834820951,3.5484571428571394,0.0
577,282.34,282.99,280.32,282.96,-73.42368425170983,3.424171428571429,0.0
578,283.29,285.55,282.57,284.8,-71.6022817475759,3.340600000000003,0.0
579,285.95,288.85,285.74,287.65,-71.54999498545787,3.381364285714288,15.760000000000048
580,289.35,290.82,288.8734,288.97,-70.78458149609796,3.4047928571428616,0.0
581,290.95,291.4,288.1805,288.9,-69.01228844150101,3.4219000000000017,0.0
582,288.64,289.26,287.815,288.39,-72.01890011182968,3.41154285714286,0.0
583,289.37,289.98,288.62,289.58,-74.37134745448417,3.1636857142857195,0.0
584,289.27,289.93,288.41,289.26,-74.24214420707051,3.12154285714286,3.5849999999999795
585,289.53,290.22,289.18,289.37,-77.26707140242151,2.90868571428572,0.0
586,291.38,293.57,290.99,292.4,-76.29213087212081,2.9629714285714335,0.0
587,292.53,293.65,291.47,293.06,-81.21303344965843,2.9590428571428578,0.0
588,296.02,296.3093,293.1255,295.86,-85.13412402675814,2.9204214285714323,0.0
589,294.14,295.52,293.76,294.0,-89.85412202505773,2.823128571428575,7.129300000000001
590,294.18,294.58,293.47,293.64,-94.8539307423634,2.465985714285714,0.0
591,293.67,293.73,290.64,290.76,-98.30903526641495,2.495985714285715,0.0
592,291.78,292.31,290.345,290.47,-100.49249824203808,2.423485714285712,0.0
593,291.29,292.06,290.89,291.5,-101.98956236752583,2.2477714285714234,0.0
594,292.57,293.55,292.01,293.0,-100.45870497876668,2.1677714285714234,4.234999999999957
595,297.01,298.2579,296.22,296.82,-102.75556721297144,2.725307142857137,0.0
596,295.51,297.52,295.48,297.19,-107.17541696465688,2.571021428571421,0.0
597,298.4,299.66,297.78,298.61,-106.78779655628537,2.5917357142857123,0.0
598,299.34,299.58,298.2,299.31,-113.91079709351156,2.4582142857142832,0.0
599,299.86,300.73,299.51,300.65,-113.25614000260555,2.409642857142854,5.25
600,301.12,301.13,300.19,300.75,-116.6732864821234,2.3975,0.0
601,300.64,300.88,299.44,299.71,-123.11027465033574,2.2796428571428544,0.0
602,299.77,299.93,297.74,297.74,-127.35620777314081,2.295714285714285,0.0
603,297.18,299.25,296.7,298.83,-130.71212613420937,2.364285714285716,0.0
604,300.01,300.07,296.96,297.17,-128.46570182958115,2.4400000000000017,4.430000000000007
605,297.61,298.5,297.04,297.9,-130.49135634178097,2.2642857142857133,0.0
606,299.15,300.03,298.22,300.03,-127.9607057189227,2.039285714285711,0.0
607,299.16,301.44,299.09,301.44,-123.2625340110946,2.0364285714285706,0.0
608,300.97,301.0,299.11,300.0,-128.06775951529605,2.0035714285714255,0.0
609,300.77,302.23,300.62,302.01,-128.32148833974483,2.0028571428571444,5.189999999999998
610,301.85,302.01,300.85,301.46,-133.84426158510186,1.9400000000000017,0.0
611,299.9,301.17,299.49,300.72,-135.69025088983435,1.904285714285712,0.0
612,300.98,301.2,295.2,297.43,-126.52348563655286,2.234285714285712,0.0
613,297.56,300.87,293.96,294.84,-119.4341301560969,2.62642857142857,0.0
614,293.86,294.12,290.9,292.62,-115.32454598711195,2.8407142857142844,11.110000000000014
615,288.07,288.21,281.72,283.82,-105.16612965588352,3.516428571428569,0.0
616,285.93,288.04,284.28,287.8,-99.92527582748247,3.6614285714285706,0.0
617,284.4,288.82,282.04,287.97,-96.87218591140163,3.963571428571425,0.0
618,289.62,293.62,289.01,293.62,-96.0048198578143,4.144999999999994,0.0
619,292.59,293.24,289.65,291.62,-95.69303535532703,4.324285714285712,11.899999999999977
620,289.9,291.6052,287.02,288.07,-93.88955776800192,4.5007142857142854,0.0
621,287.78,294.15,287.36,292.55,-89.05993621467067,4.817857142857138,0.0
622,288.05,292.4644,283.76,283.9,-84.9152334152334,5.279285714285712,0.0
623,284.89,285.64,282.39,284.65,-83.65366646353853,5.352142857142853,0.0
624,286.49,289.33,284.7138,288.85,-78.18651729559748,5.603571428571428,11.759999999999991
625,292.23,293.08,291.44,292.33,-73.93229415702405,5.764999999999999,0.0
626,291.78,292.36,289.95,290.09,-72.36797434930217,5.508571428571429,0.0
627,292.47,292.86,291.72,292.45,-66.63816708577814,5.212857142857144,0.0
628,293.24,293.93,290.4,292.36,-67.74206604728174,5.183571428571432,0.0
629,290.95,292.76,283.47,284.85,-65.55513209181466,5.068571428571431,10.45999999999998
630,287.24,288.0,285.58,288.0,-67.3672179409473,4.9921428571428565,0.0
631,289.55,289.95,286.03,286.87,-65.32954641797373,4.787857142857145,0.0
632,286.1,289.07,285.25,288.89,-62.42477432296891,4.65714285714286,0.0
633,291.77,293.16,290.61,292.58,-62.56597564988484,4.678571428571432,0.0
634,294.21,294.2399,291.42,292.45,-58.6571558026676,4.5514214285714285,8.989899999999977
635,299.8,301.1378,299.45,300.16,-74.22864882041347,2.841549999999996,0.0
636,299.91,301.02,299.75,300.92,-78.1691042153886,2.652264285714279,0.0
637,300.47,301.22,298.24,301.1,-79.40879256406205,2.5922642857142812,0.0
638,301.5,302.63,300.7103,301.08,-82.79709351583286,2.4243857142857053,0.0
639,300.34,300.67,297.41,298.28,-90.85581577062503,2.485107142857134,5.21999999999997
640,297.57,299.0,297.27,298.21,-94.98890818730558,2.381535714285706,0.0
641,299.41,299.84,294.81,295.87,-95.47268026232445,2.504035714285704,0.0
642,295.94,298.11,294.33,297.62,-95.53740311936586,2.4291071428571342,0.0
643,297.62,297.86,295.45,297.0,-95.69088713267766,2.5055357142857093,0.0
644,297.87,297.9465,293.69,295.4,-95.8067777081304,2.6609999999999974,6.149999999999977
645,295.98,297.55,295.92,296.77,-97.65739474980329,2.655285714285717,0.0
646,297.67,298.455,293.0,293.24,-103.53363950045699,2.8599285714285747,0.0
647,291.49,291.51,286.64,288.06,-100.19091011181881,3.1735000000000064,0.0
648,287.81,290.45,284.82,290.42,-97.85637196665822,3.469214285714291,0.0
649,291.21,294.63,290.82,294.35,-96.28077451887286,3.64937142857143,13.634999999999991
650,293.5,295.26,292.77,293.08,-98.78049829815542,3.736514285714289,0.0
651,291.03,291.85,288.49,288.53,-96.34854372436035,3.8515142857142854,0.0
652,290.78,292.3,288.6559,291.27,-94.77500507686982,3.983678571428576,0.0
653,291.14,294.21,291.0,293.24,-92.82604535451159,3.9508214285714343,0.0
654,296.28,298.74,296.1448,296.28,-92.22890637050756,4.220107142857147,10.25
655,295.93,296.67,295.57,295.95,-92.2107592903295,3.9393928571428654,0.0
656,297.05,299.7,296.97,298.88,-88.55452752919763,3.937250000000006,0.0
657,298.4,299.16,297.92,298.4,-90.57755639230862,3.8536785714285764,0.0
658,299.7,300.24,298.515,299.28,-88.92805678286024,3.6810714285714345,0.0
659,298.71,299.395,296.99,297.97,-85.92628677344221,3.6992857142857156,4.670000000000016
660,299.48,300.21,298.935,299.99,-85.99406458298981,3.469642857142856,0.0
661,300.63,300.9,298.91,299.01,-88.38624580772206,3.140357142857137,0.0
662,298.74,299.94,298.495,299.88,-87.16682749510491,2.8414285714285654,0.0
663,300.88,301.07,299.4601,300.37,-85.62063576887239,2.655707142857137,0.0
664,299.74,302.2,299.6806,301.6,-86.31967554076546,2.6578071428571337,3.704999999999984
665,302.91,303.85,302.91,303.3,-88.49289910673942,2.4906642857142782,0.0
666,303.03,304.23,302.86,303.21,-90.81394675087643,2.3192357142857043,0.0
667,303.42,304.55,301.99,304.14,-93.09052541470288,2.272807142857135,0.0
668,304.11,304.13,301.73,303.33,-96.90003139208729,2.0520928571428465,0.0
669,304.92,306.19,304.74,306.14,-95.11748151057017,2.1778071428571315,4.4599999999999795
670,307.87,308.0,306.96,307.37,-98.25460746512536,2.0428071428571326,0.0
671,307.58,307.9195,306.71,307.03,-98.68985650433969,2.040628571428564,0.0
672,307.06,307.4,306.06,307.1,-105.76398495530495,2.0049142857142743,0.0
673,308.6,309.65,307.66,308.18,-110.904681171706,2.015271428571416,0.0
674,307.82,309.0036,307.03,308.94,-117.60830206991828,1.99624285714285,3.589999999999975
675,307.43,308.94,307.27,308.35,-123.10679422986007,1.9733857142857119,0.0
676,308.75,309.99,307.7,309.0,-124.27135253865018,2.033742857142857,0.0
677,307.9,309.54,307.66,309.1,-131.4528299321579,2.053035714285715,0.0
678,308.77,309.64,308.09,309.55,-136.31742914464965,1.9837928571428611,0.0
679,310.98,311.84,310.26,311.79,-138.39152352501893,1.9866500000000014,4.569999999999993
680,314.41,315.18,313.8,313.88,-149.704209562986,2.193571428571431,0.0
681,313.8,314.55,312.81,313.53,-152.58625468572856,2.2128571428571484,0.0
682,314.05,314.7,313.4393,314.42,-154.60089956645984,2.0979071428571467,0.0
683,314.45,317.99,314.17,317.13,-148.18156883751843,2.2550500000000033,0.0
684,316.88,318.67,316.02,317.32,-145.2672182448596,2.3450500000000067,5.860000000000014
685,320.44,323.73,320.36,323.64,-143.63810831255418,1.9934357142857095,0.0
686,323.02,323.54,322.24,322.73,-144.070616087188,1.8865928571428543,0.0
687,322.99,325.78,322.67,324.45,-140.32769376245793,2.05373571428571,0.0
688,326.2,326.73,325.52,326.65,-142.12937237796257,2.165164285714281,0.0
689,327.36,327.46,325.2,325.71,-148.8102380246773,2.222635714285709,7.099999999999966
690,323.05,325.12,322.66,323.5,-140.12667117170858,2.5810357142857066,0.0
691,325.06,327.85,323.6038,326.89,-132.5899748151761,2.7917499999999955,0.0
692,328.4,328.63,326.4,326.62,-130.3584053447442,2.728892857142857,0.0
693,324.37,327.91,323.54,327.68,-128.2022699787426,2.8781785714285695,0.0
694,326.97,327.17,320.73,321.73,-119.32611974736389,3.213178571428569,7.899999999999977
695,323.35,326.16,323.22,324.12,-113.06611521572692,3.3688928571428556,0.0
696,328.07,330.01,327.72,329.06,-107.38236042420377,3.6627499999999964,0.0
697,332.29,333.09,330.67,332.86,-103.59381112000447,3.8248928571428524,0.0
698,333.98,334.49,332.8,333.98,-103.91209432711679,3.750607142857137,0.0
699,332.81,333.9941,331.6,332.2,-103.97659205262453,3.8223071428571336,11.269999999999982
700,323.17,333.5623,321.24,322.42,-92.52323757734206,3.7744571428571385,0.0
701,323.96,324.61,311.69,312.65,-86.61149493394494,4.2765999999999975,0.0
702,314.19,318.11,310.7,311.5,-81.42839140011684,4.518028571428573,0.0
703,305.45,311.5637,297.51,297.51,-77.11389016728316,5.401150000000001,0.0
704,288.62,297.892,285.54,296.26,-71.57796865379937,6.112428571428572,48.02229999999997
705,298.0,309.16,294.46,309.09,-64.30199590095488,6.908142857142861,0.0
706,309.55,313.84,297.57,300.24,-61.14218611330031,7.9031428571428615,0.0
707,306.11,313.1,303.33,312.86,-56.841728003398124,8.651000000000007,0.0
708,304.95,308.47,300.01,302.46,-55.361026090160536,9.386000000000008,0.0
709,293.08,298.78,290.23,297.46,-53.51618367753468,10.150285714285717,23.609999999999957
710,275.6,284.19,273.45,274.23,-50.96878968363939,11.689735714285714,0.0
711,284.76,288.52,273.5,288.42,-46.436085060446416,12.594735714285715,0.0
712,280.73,281.94,270.88,274.36,-42.79997031877547,13.493428571428572,0.0
713,256.05,266.66,247.68,248.11,-39.8902411692423,15.087000000000002,0.0
714,263.34,271.4754,248.5237,269.32,-34.67666728887733,15.875792857142857,40.839999999999975
715,255.68,262.43,253.53,261.65,-14.319951293353531,18.49276428571429,0.0
716,260.7,263.33,256.22,257.75,-17.360139810271072,17.747764285714286,0.0
717,247.95,257.6591,243.9,246.15,-14.402496688917646,16.83133571428571,0.0
718,245.2,252.68,244.59,251.83,-15.624218554638661,15.740235714285715,0.0
719,250.81,253.32,245.22,248.19,-14.476269074822614,14.035950000000001,19.42999999999998
720,282.6,286.7912,281.35,281.59,-16.04515226970932,9.054392857142844,0.0
721,276.48,278.04,272.02,273.04,-18.300671947181833,9.230107142857133,0.0
722,278.38,281.0,276.91,279.1,-18.604896247194095,8.809392857142845,0.0
723,280.46,283.94,278.75,279.08,-22.491740722895575,8.602249999999987,0.0
724,280.69,283.7,278.5,282.97,-23.79946608388969,8.39510714285713,14.771200000000022
725,285.02,288.27,284.62,287.05,-26.071438999165576,7.42866428571427,0.0
726,291.0,291.4,285.4,285.73,-28.113155388519257,7.1308071428571305,0.0
727,291.59,294.88,290.41,293.21,-27.054301223737845,7.007949999999986,0.0
728,291.69,293.3239,288.59,290.48,-31.10319061766901,6.833942857142842,0.0
729,285.16,290.6572,281.52,282.79,-31.631787292470207,7.001599999999988,13.360000000000014
730,280.46,283.9,279.13,283.57,-33.53352187499712,6.671642857142847,0.0
731,286.66,289.25,283.7134,286.19,-35.80661471170373,6.471592857142846,0.0
732,288.01,288.46,283.78,284.25,-35.526809534586874,6.500878571428562,0.0
733,287.79,289.78,287.13,287.68,-33.16866828665744,6.310164285714275,0.0
734,291.05,292.95,287.68,292.44,-35.62235078562648,6.297935714285704,13.819999999999993
735,290.37,294.0,289.88,292.5,-36.35297622243069,5.90864999999999,0.0
736,293.75,294.24,286.52,286.67,-38.29195465097521,5.891507142857137,0.0
737,285.95,287.19,278.965,281.6,-42.481903993690054,6.108292857142852,0.0
738,278.84,285.11,272.99,284.97,-41.16067313781381,6.602578571428568,0.0
739,282.32,286.33,281.34,286.28,-44.56996905545463,6.580435714285715,21.25
740,293.09,296.75,292.7,295.0,-41.678728430371244,6.899721428571431,0.0
741,294.41,296.205,291.95,291.97,-40.453584938277814,6.550078571428576,0.0
742,295.83,297.87,295.57,296.93,-40.759675800490854,6.63337142857143,0.0
743,296.8,297.67,293.6886,294.88,-42.98129970922841,6.265100000000002,0.0
744,294.56,295.63,293.22,295.44,-42.767480483868766,6.096528571428572,5.920000000000016
745,303.63,306.205,303.06,305.55,-42.85170555404525,6.196885714285709,0.0
746,306.52,308.13,305.1,308.08,-44.164961159852815,5.861885714285705,0.0
747,310.26,313.22,309.94,312.18,-43.960973392425224,5.641528571428564,0.0
748,311.12,313.0,309.08,311.36,-47.68798854641503,5.055814285714279,0.0
749,317.41,321.275,317.16,319.34,-45.05820902853966,5.40759999999999,18.214999999999975
750,320.3,323.41,319.63,323.2,-46.291440652657,4.950457142857134,0.0
751,320.26,323.2849,319.36,320.79,-47.63569410849537,4.926878571428562,0.0
752,321.4,322.39,318.2209,319.0,-48.34896659083729,4.80324285714285,0.0
753,311.31,312.15,300.01,300.61,-48.498765636421325,5.875285714285708,0.0
754,308.32,309.08,298.6,304.21,-47.63077124091285,6.451714285714279,24.810000000000002
755,298.01,308.28,296.74,307.05,-45.358948527188645,6.793857142857133,0.0
756,315.56,315.64,307.67,312.96,-44.01879465476907,6.928857142857132,0.0
757,314.04,314.39,310.86,311.66,-44.729666531460715,6.852428571428561,0.0
758,309.98,312.3,309.51,311.78,-46.79297136917345,6.659571428571423,0.0
759,314.1,314.38,306.53,308.64,-48.644151362011634,6.995642857142855,18.899999999999977
760,307.95,311.05,306.75,310.62,-50.42304002227055,7.0863571428571435,0.0
761,313.5,314.5,311.6101,312.05,-53.1370213064165,6.99635714285714,0.0
762,309.84,310.51,302.1,304.09,-55.869665110696594,7.427071428571423,0.0
763,303.47,307.64,301.28,307.35,-53.839462620209794,7.173142857142856,0.0
764,306.17,306.39,299.42,300.05,-53.76252635597923,7.448857142857138,15.079999999999984
765,316.38,317.68,315.56,317.05,-48.198215647584384,5.814285714285712,0.0
766,315.38,317.52,313.37,313.78,-49.14922440411538,5.4971428571428556,0.0
767,314.59,316.3,312.7,316.18,-47.639795775547846,5.502142857142859,0.0
768,316.85,317.1,310.68,314.38,-47.56980425592808,5.761428571428573,0.0
769,314.26,317.88,312.76,317.59,-47.52121360294339,5.566428571428572,7.199999999999989
770,320.06,322.71,314.13,314.84,-44.24973456564498,5.8721428571428556,0.0
771,313.25,319.76,312.0,318.92,-45.18272191017839,6.149285714285712,0.0
772,322.48,323.04,319.265,321.85,-42.49239371762193,5.732857142857142,0.0
773,319.78,321.28,319.09,320.79,-44.30433422379089,5.475714285714288,0.0
774,321.82,322.57,319.735,321.72,-45.72143900330841,5.111785714285714,11.04000000000002
775,321.41,325.13,320.62,324.32,-50.332539553090875,5.028214285714284,0.0
776,326.48,326.93,323.94,325.01,-53.40535720410195,4.786071428571428,0.0
777,324.62,327.2,324.5,326.86,-58.33173901931433,4.7267857142857155,0.0
778,326.45,327.23,321.48,322.96,-59.0552179262518,4.7675,0.0
779,320.93,321.99,319.246,320.88,-60.30635420622685,4.643500000000001,7.984000000000037
780,321.63,323.41,320.775,323.22,-59.22465594107381,4.53528571428572,0.0
781,322.45,323.64,320.85,321.17,-63.25255279916945,4.4774285714285735,0.0
782,322.14,325.73,322.075,325.12,-61.225663785238204,4.344571428571429,0.0
783,321.9,324.41,319.64,323.96,-62.328195884949665,4.370285714285716,0.0
784,326.0,326.63,321.33,326.52,-65.3026511672104,4.136000000000004,6.990000000000009
785,328.31,329.62,327.73,328.79,-66.10531278449731,3.803142857142863,0.0
786,327.88,330.06,327.86,330.06,-69.46544580285435,3.666000000000005,0.0
787,331.46,332.39,331.18,332.11,-72.22653233167168,3.6352857142857147,0.0
788,331.52,334.46,331.13,334.33,-74.01608743484769,3.670642857142858,0.0
789,333.29,334.88,332.3,334.57,-75.47387761041985,3.5327857142857146,7.149999999999977
790,335.0,335.77,332.955,335.57,-75.00627445876981,3.5202857142857136,0.0
791,336.86,337.54,332.01,332.8,-74.61484873535882,3.7224285714285736,0.0
792,335.47,338.28,332.8377,337.44,-73.71386103184723,3.703142857142857,0.0
793,336.58,338.2514,335.83,336.83,-73.67804961302436,3.610814285714286,0.0
794,336.43,337.42,335.62,336.84,-78.96470989549415,3.551171428571426,6.269999999999982
795,337.91,338.34,336.8517,337.91,-80.95036275841011,3.4590285714285716,0.0
796,338.32,339.1,336.61,338.64,-87.445068698893,3.3111714285714293,0.0
797,339.11,339.61,336.62,337.23,-93.8909079431498,3.1333142857142855,0.0
798,335.33,338.8,335.22,338.28,-94.90531969912803,3.010457142857141,0.0
799,337.86,339.72,337.55,339.48,-96.40558846499901,2.9440285714285688,4.5
800,342.13,343.0,339.4504,342.92,-95.91981425901803,3.0404285714285697,0.0
801,343.53,344.21,342.27,344.12,-98.5770778652668,3.0125714285714276,0.0
802,344.72,347.86,344.17,347.57,-97.28615206707138,3.0418571428571437,0.0
803,348.5,349.9,346.53,348.33,-94.658557576453,3.0982857142857165,0.0
804,349.45,350.72,348.15,350.58,-100.42041326743275,3.0807857142857205,11.269600000000025
805,337.52,340.38,334.2208,338.46,-71.64683704688034,6.609285714285712,0.0
806,341.11,342.02,338.4683,340.17,-71.07057416267942,6.724999999999999,0.0
807,341.5,343.06,338.52,338.82,-71.29384521079754,6.782142857142857,0.0
808,333.52,337.6996,332.991,335.84,-71.21926910299004,6.957785714285714,0.0
809,335.35,335.49,327.97,330.65,-72.22650745383078,7.336357142857135,15.089999999999975
810,325.71,327.13,321.73,326.97,-71.45885546166879,7.813499999999989,0.0
811,328.55,330.9,325.86,330.3,-64.83067554088514,7.925642857142845,0.0
812,330.92,331.2,322.1,322.64,-61.93787680244156,8.13635714285713,0.0
813,321.22,326.797,319.8,323.5,-56.906882756472655,7.5568571428571305,0.0
814,322.57,329.58,321.64,328.73,-56.43969767165603,7.198285714285703,11.399999999999977
815,333.22,334.96,332.15,334.19,-52.79749396745474,6.946142857142844,0.0
816,334.0,334.77,331.6209,332.37,-52.82451875801421,6.51036428571427,0.0
817,333.1,338.29,332.88,334.89,-53.0516014606405,6.241792857142847,0.0
818,337.63,338.74,335.01,337.04,-52.64868454968918,6.090364285714275,0.0
819,331.71,337.0126,331.19,333.84,-52.07722212868301,6.056792857142848,7.550000000000011
820,336.01,339.96,336.01,339.76,-49.48487658196822,6.239649999999991,0.0
821,339.87,342.17,334.38,334.93,-47.24335537491005,6.471792857142849,0.0
822,338.12,341.63,338.09,340.76,-44.23564077922549,6.534007142857133,0.0
823,342.88,343.85,341.86,343.78,-44.84235017700531,6.192578571428568,0.0
824,345.53,347.35,344.89,346.85,-42.84115460279127,5.810435714285717,12.970000000000027
825,349.55,354.02,349.06,352.43,-44.225873119172476,5.9625785714285735,0.0
826,352.31,352.4651,349.09,350.13,-48.84510196821084,5.5536571428571495,0.0
827,350.73,351.93,347.14,347.93,-52.52609692838618,5.396014285714293,0.0
828,343.72,348.02,343.13,347.5,-53.46965711181499,5.17815714285715,0.0
829,348.99,350.75,347.1,347.29,-56.56566610582729,4.9938714285714365,10.889999999999986
830,348.57,349.33,341.04,342.01,-57.34844590043724,5.361078571428578,0.0
831,343.42,346.88,342.64,343.38,-56.55123199029917,5.286078571428577,0.0
832,343.36,348.6847,342.4,342.73,-57.67525616680796,5.459985714285722,0.0
833,342.92,345.24,340.65,344.61,-55.68069509840008,5.369985714285723,0.0
834,345.91,345.99,343.13,345.78,-58.62252603825639,5.137128571428581,8.680000000000007
835,342.14,342.98,335.62,339.39,-59.87212616215122,5.306414285714291,0.0
836,339.74,340.12,337.99,338.22,-64.00347908222585,4.97998571428572,0.0
837,332.11,338.2483,326.13,326.66,-64.91238030104788,5.624864285714287,0.0
838,326.99,333.395,325.09,329.98,-63.88832112719422,5.96307857142857,0.0
839,328.28,329.69,322.6,326.54,-63.56113169729438,5.978078571428573,20.379999999999995
840,330.2,332.36,327.24,330.2,-63.67680369944181,6.152714285714284,0.0
841,333.72,338.25,330.2935,336.03,-61.8303639530364,6.385571428571426,0.0
842,340.8,347.94,339.59,343.54,-55.48992654188999,6.8870000000000005,0.0
843,349.28,352.19,348.86,350.24,-53.92180970288373,7.244142857142857,0.0
844,349.97,351.51,347.65,350.16,-53.723013857503155,6.9277142857142895,24.94999999999999
845,364.36,364.38,354.06,354.56,-50.99040043224718,7.59557142857143,0.0
846,353.52,355.18,350.51,354.04,-51.8668905528653,7.480235714285714,0.0
847,356.43,357.56,355.06,356.67,-50.78039401393739,7.403807142857139,0.0
848,355.57,356.7182,351.26,353.21,-51.343556044581746,7.589392857142855,0.0
849,355.3,358.9,354.71,358.1,-46.16105358810641,7.270107142857142,13.870000000000005
850,368.97,369.62,367.72,369.09,-66.41385895917989,3.611071428571433,0.0
851,367.67,370.78,367.67,370.17,-68.97549180755983,3.531071428571429,0.0
852,370.91,371.05,365.95,366.85,-69.04177853022864,3.5196428571428595,0.0
853,365.39,367.86,364.43,366.73,-72.50867418696515,3.476785714285715,0.0
854,364.93,366.7402,363.26,366.3,-80.4274742019216,3.5446571428571474,7.7900000000000205
855,377.84,380.58,377.7189,378.69,-80.49113257029295,5.125971428571428,0.0
856,378.84,379.86,376.36,378.77,-80.05809763928659,4.202399999999999,0.0
857,378.65,380.86,377.85,379.79,-80.5758818959357,4.252992857142853,0.0
858,380.63,381.13,378.1,378.46,-81.66529597497392,4.29779285714285,0.0
859,376.71,377.58,373.7,375.7,-80.81959636419658,4.524935714285708,7.430000000000007
860,373.84,377.34,370.376,376.23,-79.31995775799021,5.187500000000004,0.0
861,379.68,383.22,376.3181,381.55,-74.93329832215046,5.436785714285719,0.0
862,382.43,383.7,380.48,381.85,-72.85411963989594,5.451785714285718,0.0
863,383.03,386.24,381.9655,386.19,-72.72054451136194,5.548928571428576,0.0
864,388.27,388.47,386.1444,387.71,-74.95329555513248,5.375042857142863,18.09400000000005
865,389.3,390.56,388.35,390.51,-73.86127138956347,5.326471428571433,0.0
866,389.55,390.89,389.17,390.25,-74.33480760489627,5.010757142857143,0.0
867,392.1,392.28,387.5,390.08,-78.4609659443613,5.230757142857142,0.0
868,391.34,391.69,388.1,390.71,-78.6206077587003,5.315399999999995,0.0
869,389.88,392.9,389.77,392.64,-77.23560216410618,5.088257142857137,5.399999999999977
870,385.65,390.92,380.572,389.58,-71.81470184934663,5.3340071428571365,0.0
871,389.87,390.07,386.0,386.54,-71.76038308065121,5.501864285714281,0.0
872,385.83,386.83,381.31,381.42,-73.79979294596569,5.554721428571424,0.0
873,381.22,384.0,371.88,376.7,-69.73030086454428,6.16400714285714,0.0
874,380.41,384.76,372.64,383.63,-68.42343160904201,6.806149999999998,19.04000000000002
875,384.69,387.68,381.42,381.72,-68.74778811113462,7.064721428571423,0.0
876,385.88,389.91,381.7299,387.17,-68.10016153150269,7.411864285714278,0.0
877,389.59,391.4,388.1702,389.58,-68.02098778117026,7.381864285714276,0.0
878,392.24,395.65,391.74,393.53,-67.91361645338293,7.613292857142848,0.0
879,392.09,394.21,391.2,394.06,-69.43949772237455,7.59329285714285,14.229999999999961
880,394.4,396.685,392.03,396.41,-65.53536116832211,7.3011499999999945,0.0
881,397.06,397.83,395.08,395.91,-64.73511323625067,7.0004357142857065,0.0
882,394.56,398.12,393.3,397.26,-66.86865408095173,6.551785714285708,0.0
883,394.49,396.72,390.75,391.48,-64.72813673701461,6.49178571428571,0.0
884,389.94,391.569,387.15,389.48,-63.47994802514519,6.053142857142855,10.970000000000027
885,403.49,406.94,403.38,406.36,-66.69239512569061,4.797785714285713,0.0
886,405.83,407.24,405.4,406.12,-67.19409658880494,4.732785714285716,0.0
887,405.95,406.96,405.45,406.59,-70.79070515632772,4.496357142857144,0.0
888,407.92,408.58,406.93,408.52,-72.71212616197917,4.173500000000002,0.0
889,408.44,411.67,408.26,411.49,-72.07491665032359,4.101428571428572,8.29000000000002
890,417.42,418.22,416.8111,417.61,-101.72772509991371,3.3685000000000036,0.0
891,417.97,418.14,416.3,417.52,-105.93976424243031,3.392071428571431,0.0
892,417.84,419.01,416.9,417.4,-108.76006142493475,3.4006428571428597,0.0
893,420.38,420.72,416.44,420.06,-109.28680226714593,3.4627857142857175,0.0
894,417.67,418.54,416.34,417.3,-111.06594066288196,3.6049285714285753,4.420000000000016
895,419.41,419.84,417.665,418.2,-118.3636984114751,3.614285714285716,0.0
896,415.99,416.6,411.67,415.62,-120.13589384396467,3.8600000000000017,0.0
897,417.43,417.63,414.94,415.75,-120.58539968012161,3.7157142857142844,0.0
898,415.8,419.21,413.675,419.07,-114.30421765165319,3.955357142857139,0.0
899,419.85,422.815,419.16,422.12,-115.05110135011164,3.9749999999999983,11.144999999999982
900,422.55,422.74,417.81,417.94,-113.36958037083504,3.9971428571428556,0.0
901,413.12,415.27,410.06,414.21,-114.99087543117541,4.207857142857141,0.0
902,411.23,412.59,404.0,405.41,-108.31800250075122,4.533571428571427,0.0
903,407.02,412.35,407.02,410.28,-101.69301743109975,4.602142857142853,0.0
904,413.23,417.49,413.18,416.58,-95.53519183967525,5.011428571428569,18.74000000000001
905,415.39,416.39,413.36,415.52,-97.15477562946083,5.109999999999998,0.0
906,415.79,416.06,411.77,411.94,-94.58003769720028,5.265714285714283,0.0
907,406.93,411.05,405.33,410.86,-91.90165296120941,5.432142857142854,0.0
908,411.77,416.625,411.67,415.28,-87.88006338114006,5.57821428571428,0.0
909,416.83,418.2,414.45,414.94,-88.69874288522178,5.664642857142853,12.870000000000005
910,417.39,420.32,417.08,419.17,-86.93364191373054,5.582499999999998,0.0
911,420.33,420.71,417.62,418.24,-88.66119671803085,5.611071428571425,0.0
912,418.89,419.61,417.76,419.07,-88.71564815193814,5.347857142857143,0.0
913,420.16,420.72,418.9851,419.29,-89.41988014448565,5.204278571428574,0.0
914,421.03,421.25,419.79,420.04,-88.14339216048596,4.992135714285715,4.170000000000016
915,422.55,422.78,421.19,422.19,-90.4623273206717,3.548564285714292,0.0
916,423.16,423.21,420.32,422.28,-93.11657290927451,3.4485642857142897,0.0
917,423.15,423.26,421.41,421.65,-93.67213279686949,3.1085642857142863,0.0
918,422.96,424.63,421.55,423.61,-98.15210099408431,2.916778571428572,0.0
919,424.12,424.43,422.82,424.31,-98.51470722072737,2.7639214285714298,4.310000000000002
920,424.43,425.37,423.1,425.26,-101.7380483704197,2.541778571428572,0.0
921,425.46,425.46,423.54,424.48,-103.8346068421322,2.458207142857142,0.0
922,424.61,424.87,419.92,422.11,-104.7847891088508,2.6796357142857112,0.0
923,421.62,423.02,419.32,421.97,-109.02874412613703,2.819999999999993,0.0
924,417.16,417.8281,414.7,414.92,-114.6003878252281,3.1992857142857116,10.759999999999991
925,416.85,421.06,415.93,420.86,-113.09835379304081,3.386428571428565,0.0
926,420.86,424.0,420.08,423.11,-118.64164177474791,3.5278571428571377,0.0
927,423.2,424.05,422.51,422.6,-120.7475454168084,3.3485714285714243,0.0
928,424.93,425.55,424.62,425.1,-121.88167398488376,3.2628571428571354,0.0
929,425.96,427.0943,425.55,426.61,-127.66207658824344,3.291735714285705,11.164299999999969
930,427.13,427.65,425.89,427.47,-134.96918099610198,3.21102142857142,0.0
931,427.87,428.56,427.13,427.7,-139.34341067899862,3.1810214285714227,0.0
932,427.18,428.78,427.18,428.06,-146.92452567710748,3.0753071428571355,0.0
933,428.88,430.6,428.8,430.43,-146.63653563170075,3.1417357142857076,0.0
934,431.67,434.1,430.5218,433.72,-140.38027494699415,3.24173571428571,8.210000000000036
935,435.48,437.35,434.97,437.08,-125.54522404676771,3.0785928571428536,0.0
936,436.21,437.84,435.31,435.59,-130.03402882739906,2.979307142857136,0.0
937,437.38,437.92,434.91,436.24,-128.57496949133275,3.084307142857134,0.0
938,434.79,435.53,432.72,434.75,-128.6039013399603,3.125021428571419,0.0
939,436.04,436.06,430.92,431.34,-124.94925787876993,3.3497142857142785,7.0
940,426.2,431.4089,421.97,424.97,-118.49888793985593,3.8982071428571357,0.0
941,425.73,432.42,424.83,431.06,-111.10448283541744,4.338207142857137,0.0
942,432.39,434.7,431.0111,434.55,-110.34656527915733,4.487414285714282,0.0
943,434.81,435.72,433.69,435.46,-109.59365613501778,4.450985714285712,0.0
944,437.57,440.3,436.79,439.94,-109.34988004678522,4.534557142857141,18.329999999999984
945,439.36,441.03,439.26,441.02,-109.3387403178436,4.375271428571425,0.0
946,439.94,439.94,435.99,439.01,-114.82161055974726,4.502414285714281,0.0
947,439.72,440.3,437.31,438.83,-119.54802641793624,4.220271428571424,0.0
948,439.84,441.8,439.81,440.65,-119.42821843182577,4.066271428571428,0.0
949,437.98,440.06,437.77,438.51,-118.68565796518509,4.101985714285713,5.810000000000002
950,440.38,440.93,437.21,437.59,-117.17323277485684,4.186985714285718,0.0
951,438.45,441.28,436.1,441.15,-110.67824098853009,4.341985714285714,0.0
952,439.82,441.1243,438.73,438.98,-107.18853013227837,4.263414285714284,0.0
953,440.22,441.85,439.88,441.76,-108.07900810689483,4.101271428571429,0.0
954,442.15,442.94,441.8,442.49,-110.14341067566474,3.511350000000001,6.839999999999975
955,442.47,442.795,441.31,442.13,-111.87831664806808,3.0752785714285715,0.0
956,442.62,443.44,441.88,442.68,-116.54028960782794,2.9232142857142867,0.0
957,443.77,443.882,442.62,443.78,-120.19687597573025,2.8683571428571417,0.0
958,443.59,445.2572,442.66,445.11,-119.55283171177305,2.7081571428571385,0.0
959,445.55,445.94,445.07,445.92,-127.44658143917901,2.6438714285714258,4.6299999999999955
960,444.6,447.11,442.87,446.97,-129.51394623359946,2.587442857142857,0.0
961,444.28,444.96,440.85,444.04,-123.80108212730397,2.8110142857142852,0.0
962,442.93,444.625,438.92,439.18,-120.45862688216606,3.0063714285714247,0.0
963,436.3,441.14,436.12,439.86,-119.68163800368303,3.159228571428567,0.0
964,440.14,443.71,439.71,443.36,-116.97671770344837,3.1792285714285646,10.990000000000009
965,445.28,448.23,443.4355,447.26,-117.75265501884208,3.1570857142857114,0.0
966,447.91,448.54,447.42,447.97,-128.87041911984034,3.0756571428571453,0.0
967,448.22,449.457,447.77,448.91,-137.5929768516661,2.9911571428571455,0.0
968,448.6,448.86,446.16,446.26,-140.38034483352223,3.103300000000002,0.0
969,447.1,450.65,447.06,450.25,-135.8654115015379,3.3108000000000004,7.214499999999987
970,450.98,453.07,450.71,452.23,-139.4425111000635,3.4008,0.0
971,452.16,452.49,450.92,451.56,-140.51569853509807,3.422799999999999,0.0
972,452.6,453.11,451.545,451.8,-147.37773265026695,3.3490714285714285,0.0
973,453.33,454.05,451.91,453.19,-146.34952602341156,3.447642857142857,0.0
974,452.02,453.63,451.55,453.08,-144.78337383725818,3.2933571428571407,3.340000000000032
975,434.91,436.56,428.86,434.04,-117.02463558486156,4.326621428571424,0.0
976,436.63,437.91,433.07,433.63,-113.50047601590846,4.560192857142856,0.0
977,436.06,440.03,433.747,437.86,-110.23342601084431,4.905549999999997,0.0
978,439.82,444.89,439.6,443.18,-107.33419117548027,5.246978571428566,0.0
979,441.49,444.67,441.21,443.91,-109.10642166354934,5.3455499999999985,16.029999999999973
980,442.78,444.05,441.9,442.64,-111.41979695001491,5.33214285714286,0.0
981,439.73,440.04,432.94,433.72,-106.17411212356976,5.824285714285716,0.0
982,435.17,437.04,433.85,434.45,-108.02982254480763,5.786428571428575,0.0
983,435.98,436.77,428.78,429.14,-101.94885649950434,5.915714285714289,0.0
984,430.97,436.0329,427.24,434.24,-96.60235912397481,6.200207142857145,16.810000000000002
985,433.0,433.96,426.36,428.64,-93.61122450241838,6.397350000000005,0.0
986,430.33,435.49,429.39,433.1,-88.70791529343215,6.531635714285719,0.0
987,429.29,435.1199,427.54,434.9,-82.47090224104922,6.763057142857142,0.0
988,438.51,441.68,438.2,438.66,-78.60032234060188,6.808057142857142,0.0
989,439.57,439.89,437.19,437.86,-79.66076670363623,6.105200000000001,15.319999999999993
990,437.1,440.26,434.62,434.69,-80.26917201239918,6.162342857142854,0.0
991,435.67,436.1,432.78,433.62,-80.04039568796365,5.94234285714286,0.0
992,434.69,436.05,431.54,435.18,-78.16699707707022,5.762342857142861,0.0
993,439.06,442.66,438.58,442.5,-71.56522617804573,6.049485714285717,0.0
994,444.8,446.26,444.09,445.87,-71.28511505397526,6.164485714285713,14.71999999999997
995,444.0,447.55,443.27,447.19,-70.13677811550147,5.77734285714286,0.0
996,448.92,450.7,448.27,450.64,-71.90177162644412,5.790914285714288,0.0
997,451.16,452.732,451.01,452.41,-71.09468286858178,5.369628571428576,0.0
998,451.79,453.829,451.31,453.59,-73.6733743642429,4.921492857142864,0.0
999,453.15,454.67,451.05,453.12,-74.76979691332541,4.61720714285715,11.400000000000034
1000,454.24,455.9,452.39,455.55,-77.08771224389082,4.3786357142857195,0.0
1001,457.25,458.49,455.56,455.96,-82.27250180545143,4.047214285714294,0.0
1002,456.49,457.16,453.86,453.94,-82.38217487404066,3.798642857142864,0.0
1003,455.5,458.4,455.45,458.32,-82.30709323407683,3.9243571428571493,0.0
1004,455.9,459.56,455.56,459.25,-84.73551613317493,3.8072142857142928,7.170000000000016
1005,460.34,460.7021,458.2,460.04,-88.26041910470742,3.7487928571428597,0.0
1006,460.25,462.23,460.08,461.9,-89.24543564869566,3.5830785714285747,0.0
1007,461.31,465.15,460.83,464.72,-93.21270064307578,3.357364285714287,0.0
1008,465.38,467.0,464.99,466.91,-95.05942044965778,3.25165,0.0
1009,469.35,470.65,466.92,468.53,-99.02187490997851,3.2130785714285657,12.449999999999989
1010,469.65,470.23,468.2031,468.93,-105.7102752669777,3.107142857142853,0.0
1011,469.35,469.57,465.88,467.38,-110.13871635011232,3.221285714285707,0.0
1012,465.61,467.38,462.04,463.62,-113.9630854766241,3.422785714285705,0.0
1013,465.15,465.29,463.75,463.77,-121.14680806820544,3.2834999999999916,0.0
1014,465.15,467.86,464.11,467.27,-122.53567226441331,3.3249285714285657,8.189999999999998
1015,468.66,468.81,466.23,467.43,-125.08792974188711,3.299214285714279,0.0
1016,467.16,470.485,467.07,469.28,-128.1443853200943,3.3074285714285656,0.0
1017,468.97,469.19,467.48,468.14,-131.10672245467234,3.117428571428564,0.0
1018,469.23,470.01,466.34,469.73,-132.9708847215183,3.093857142857136,0.0
1019,469.61,470.94,468.5,468.89,-142.98525285091657,3.089421428571423,4.7099999999999795
1020,470.24,470.56,466.27,466.57,-84.09191447866694,7.527107142857143,0.0
1021,463.03,465.74,460.25,463.36,-79.53010334335052,7.646749999999997,0.0
1022,463.47,470.86,460.74,470.6,-76.0897102508224,8.056749999999997,0.0
1023,472.6,472.87,464.8,466.45,-71.77239275038878,7.799607142857139,0.0
1024,461.47,464.74,458.06,459.87,-69.87793547365118,7.856749999999997,14.810000000000002
1025,462.74,465.74,456.5973,465.51,-76.64743467480456,5.221621428571423,0.0
1026,465.24,469.85,462.05,469.75,-78.6722308083324,5.1909071428571405,0.0
1027,471.65,473.2,468.94,471.02,-82.3263294939266,5.121621428571424,0.0
1028,472.2,472.88,463.44,464.53,-83.72924288962416,5.474478571428567,0.0
1029,461.1,465.09,459.9,464.72,-82.80446275558403,5.365907142857139,16.60269999999997
1030,441.44,450.28,439.81,449.91,-46.531175689155525,15.3816,0.0
1031,450.64,453.63,446.9384,452.95,-44.66053604072782,15.30242857142857,0.0
1032,455.5,458.12,453.05,457.35,-44.53086254479176,15.367428571428572,0.0
1033,450.93,452.97,445.71,446.6,-42.617722695269016,15.524571428571432,0.0
1034,446.24,452.78,443.83,448.7,-40.657867456204805,15.79314285714286,18.310000000000002
1035,449.5,450.99,445.85,447.26,-39.64589383717636,15.488142857142858,0.0
1036,446.66,451.92,445.22,450.94,-37.1875175622828,15.3844,0.0
1037,455.29,457.88,455.005,457.54,-36.573677751204855,14.862971428571427,0.0
1038,451.4,457.71,447.2,449.32,-35.62991926695269,14.891542857142854,0.0
1039,449.3,451.605,438.94,440.46,-35.84882287664503,14.394757142857141,18.939999999999998
1040,432.23,438.2,430.7,436.63,-38.26874660064431,9.33,0.0
1041,435.12,437.17,427.21,429.98,-37.503000816222006,9.562857142857146,0.0
1042,432.3,439.72,431.57,437.89,-36.563887559216276,9.762857142857147,0.0
1043,440.59,441.11,433.8,435.77,-46.52053389087212,9.53428571428572,0.0
1044,431.69,433.37,427.88,432.1,-49.86668978822101,9.193214285714289,13.900000000000034
1045,431.58,432.3018,419.36,419.43,-51.17509765130031,9.670485714285714,0.0
1046,419.87,427.21,415.12,416.25,-49.89518610438475,10.015485714285713,0.0
1047,425.16,429.51,422.83,427.33,-47.528493799175976,10.525842857142854,0.0
1048,422.42,426.43,420.44,425.48,-46.6683609145296,10.290842857142852,0.0
1049,428.2,428.77,419.53,420.07,-44.880283369926865,10.462271428571423,17.18180000000001
1050,420.98,424.55,415.79,417.0,-47.07572496270468,10.39941428571428,0.0
1051,419.66,426.84,418.42,426.17,-47.94194724431616,10.251557142857138,0.0
1052,429.94,435.68,424.8,435.55,-45.62736697433825,9.73441428571428,0.0
1053,433.7,441.07,433.19,441.07,-43.45994322466959,9.584414285714283,0.0
1054,437.81,444.86,437.22,444.31,-44.64042836143633,9.594414285714281,29.069999999999993
