,VBM,ATR,weekly_range
0,0.0,0.0,0.0
1,0.0,0.0,0.0
2,0.0,0.0,0.0
3,0.0,0.0,0.0
4,0.0,0.0,8.21950000000001
5,-67.23038142747876,2.827142857142854,0.0
6,-69.12498372116517,2.9378571428571427,0.0
7,-68.64153805433466,3.2364285714285734,0.0
8,-65.07265031652817,3.4571428571428595,0.0
9,-64.71813948591519,3.847142857142856,9.340000000000003
10,-49.06550486929776,4.4378571428571485,0.0
11,-50.785879979828486,4.487857142857147,0.0
12,-46.59133307423239,4.359285714285718,0.0
13,-46.14749999999998,4.158571428571433,0.0
14,-45.08647813589473,4.022828571428578,7.480000000000018
15,-44.67578463371574,4.1135428571428605,0.0
16,-45.80200072714444,3.877828571428576,0.0
17,-45.29271934233065,3.8056857142857177,0.0
18,-46.079511998965955,3.817114285714289,0.0
19,-44.30623402672184,3.851400000000002,7.25
20,-52.14749500450837,2.9971428571428578,0.0
21,-49.106781171514186,3.0621428571428573,0.0
22,-51.75966077066834,2.961428571428572,0.0
23,-54.168800087113055,2.7803571428571416,0.0
24,-57.280918799305006,2.687499999999998,8.019999999999982
25,-57.52478757811314,2.591785714285712,0.0
26,-59.858175026601494,2.513928571428569,0.0
27,-62.35770492381939,2.505357142857138,0.0
28,-60.99923198394017,2.6453571428571365,0.0
29,-61.61511003435394,2.669792857142852,5.430000000000007
30,-64.51359072170246,2.571221428571422,0.0
31,-66.95175036092044,2.37627142857142,0.0
32,-68.14735983154975,2.344128571428562,0.0
33,-72.3995826661127,2.3926999999999885,0.0
34,-75.56999930918293,2.2562714285714174,4.179999999999978
35,-97.94185950382202,1.7254071428571365,0.0
36,-99.20435044239932,1.7910714285714238,0.0
37,-98.53702705938724,1.8082142857142836,0.0
38,-102.4047013002947,1.8732142857142853,0.0
39,-101.70949968286023,1.9439285714285717,3.9799999999999898
40,-111.9356951267748,1.8515785714285715,0.0
41,-111.95703435399716,1.7551499999999984,0.0
42,-109.73051888025402,1.6401499999999973,0.0
43,-110.3502077925851,1.6987214285714256,0.0
44,-111.36388230417899,1.7151499999999962,4.780000000000001
45,-109.52972126755127,1.6672928571428522,0.0
46,-106.84707908836414,1.713007142857139,0.0
47,-111.4149313394379,1.7637214285714253,0.0
48,-112.40209166212306,1.816428571428568,0.0
49,-110.37830539613286,1.788571428571426,4.300000000000011
50,-113.85453410784,1.7728571428571402,0.0
51,-109.30811828485757,1.8499999999999983,0.0
52,-110.74499465247138,1.8814285714285697,0.0
53,-112.0333387675254,1.93427857142857,0.0
54,-115.50039433813467,2.009992857142856,4.159999999999997
55,-110.785711359633,2.114278571428571,0.0
56,-109.70878518338007,2.172850000000001,0.0
57,-111.21713058628096,2.163564285714289,0.0
58,-109.52411809971242,2.144992857142861,0.0
59,-105.79156880697427,2.1435642857142887,4.560000000000002
60,-105.77745807741299,2.0082071428571453,0.0
61,-103.50690172499114,2.1060642857142886,0.0
62,-101.7181227760413,2.133985714285718,0.0
63,-105.87533692457986,2.051842857142861,0.0
64,-104.85146900317778,2.0425571428571465,5.264999999999986
65,-102.96551903069296,1.7904285714285717,0.0
66,-105.13069726440887,1.6740000000000006,0.0
67,-108.43707997311814,1.542578571428572,0.0
68,-111.9107367689835,1.47615,0.0
69,-113.87940212068297,1.5297214285714287,3.0900000000000034
70,-115.06024096385529,1.6129357142857157,0.0
71,-115.49863836088595,1.5229428571428574,0.0
72,-114.71135631306255,1.517878571428572,0.0
73,-113.39308694747976,1.6778785714285707,0.0
74,-113.29659793877383,1.7985928571428562,4.780000000000001
75,-111.05214610012327,1.910735714285715,0.0
76,-113.1554869918065,1.8785928571428567,0.0
77,-117.0638331774858,1.8700142857142847,0.0
78,-115.22555999015769,1.9257285714285726,0.0
79,-107.84636632095847,2.401442857142858,8.150000000000006
80,-104.6549146563129,2.6535857142857133,0.0
81,-97.83466548202036,2.8585785714285685,0.0
82,-90.3318717221219,3.037864285714284,0.0
83,-88.9829947069618,3.064292857142856,0.0
84,-89.64465661198086,3.0057214285714275,11.840000000000003
85,-81.23183299228835,2.95567857142857,0.0
86,-83.15694534473393,3.0063928571428584,0.0
87,-77.42573117072916,2.9728214285714296,0.0
88,-73.13533119002702,2.8942499999999995,0.0
89,-75.18269990791048,2.433857142857142,4.0625
90,-78.03077504299705,2.180285714285714,0.0
91,-82.66010176434362,1.9717142857142866,0.0
92,-83.5718856028744,1.791714285714286,0.0
93,-83.25446243254464,1.6838571428571438,0.0
94,-84.82581768918136,1.6838571428571438,1.740000000000009
95,-87.28177235340938,1.6267142857142878,0.0
96,-91.77013905335451,1.531714285714287,0.0
97,-94.82941543582275,1.5053214285714307,0.0
98,-95.730864879801,1.3596071428571455,0.0
99,-95.77549182599053,1.3624642857142877,1.9199999999999875
100,-99.69082263263812,1.3192500000000007,0.0
101,-111.60189836970542,1.4092500000000021,0.0
102,-119.83104226071399,1.3646071428571471,0.0
103,-122.51614874301657,1.4235714285714332,0.0
104,-127.95737122557715,1.4857142857142887,3.9799999999999898
105,-133.6275590928703,1.4857142857142887,0.0
106,-135.58566812943045,1.4692857142857159,0.0
107,-138.21060052553983,1.448128571428573,0.0
108,-142.7090945326512,1.4559857142857149,0.0
109,-147.46592738045828,1.4159857142857146,1.710000000000008
110,-156.9807730738593,1.3931285714285724,0.0
111,-159.396740562736,1.3559857142857143,0.0
112,-160.3076544495727,1.3666999999999985,0.0
113,-159.69633710981728,1.315271428571427,0.0
114,-163.7714491008089,1.3091999999999981,2.4799999999999898
115,-167.74420746573236,1.2099142857142826,0.0
116,-169.27671505340905,1.208128571428568,0.0
117,-166.0254346897331,1.139557142857139,0.0
118,-167.52999664249657,1.0802714285714257,0.0
119,-160.30751998370752,1.2295571428571404,3.3499999999999943
120,-160.23388521840926,1.259914285714284,0.0
121,-160.28260110200912,1.264642857142856,0.0
122,-161.1974002774986,1.279285714285712,0.0
123,-159.37431634215727,1.3492857142857113,0.0
124,-158.64199945241936,1.3785714285714252,2.8400000000000034
125,-121.09821240799184,2.313928571428566,0.0
126,-119.78184845961722,2.311785714285709,0.0
127,-115.88781275221974,2.3899999999999966,0.0
128,-114.59912245712022,2.390714285714284,0.0
129,-115.61746445023043,2.37642857142857,4.5
130,-113.0862944162437,2.4278571428571434,0.0
131,-105.29201841903304,2.509285714285716,0.0
132,-105.52309425460015,2.59857142857143,0.0
133,-100.12363636363644,2.4250000000000034,0.0
134,-97.7268659387865,2.277857142857146,3.5
135,-99.4351851851852,2.0892857142857184,0.0
136,-99.39715161348482,2.087857142857146,0.0
137,-98.87350319618265,1.9785714285714318,0.0
138,-98.69712230215836,1.878214285714287,0.0
139,-100.21532164783349,1.8967857142857167,2.3100000000000023
140,-101.02751313329183,1.928928571428573,0.0
141,-97.57534128960255,1.9982142857142853,0.0
142,-95.80543879214211,1.9696428571428564,0.0
143,-94.73615635179155,2.055357142857141,0.0
144,-94.32578067067642,2.033928571428569,5.489999999999981
145,-99.59360932121103,1.9739285714285688,0.0
146,-105.24530744336566,1.9610714285714275,0.0
147,-110.30518402811676,1.833214285714283,0.0
148,-111.08317636561912,1.7603571428571396,0.0
149,-115.82327011788819,1.764642857142854,2.469999999999999
150,-118.83598776500362,1.7046428571428558,0.0
151,-120.58124798625273,1.6724999999999994,0.0
152,-121.34258567310769,1.6857142857142853,0.0
153,-121.4015077023927,1.644999999999998,0.0
154,-120.7321447866019,1.6849999999999983,3.609999999999985
155,-121.17061456172918,1.4885714285714269,0.0
156,-118.52123265911271,1.6371428571428563,0.0
157,-118.88399787347169,1.5921428571428566,0.0
158,-121.7398008352073,1.5992857142857133,0.0
159,-126.06633608815443,1.6199999999999986,4.810000000000002
160,-117.28554913294815,1.8135714285714255,0.0
161,-114.15871060466087,1.9099999999999986,0.0
162,-108.15716096324472,2.1485714285714272,0.0
163,-103.86244685876248,2.2749999999999977,0.0
164,-103.11086057872987,2.2935714285714255,7.009999999999991
165,-103.56057728826438,2.3328571428571405,0.0
166,-102.0459290187892,2.347142857142856,0.0
167,-107.82429457674606,2.298571428571429,0.0
168,-105.89327983951856,2.2250000000000005,0.0
169,-108.12083591971859,2.2357142857142884,3.5500000000000114
170,-122.9642069721995,1.3965785714285712,0.0
171,-121.48957829141708,1.4701499999999998,0.0
172,-126.24031821496206,1.602649999999999,0.0
173,-127.52349037687249,1.67907857142857,0.0
174,-136.07750181356752,1.7490785714285713,3.670000000000016
175,-147.8201894963176,1.2931214285714288,0.0
176,-147.5160571503473,1.3259785714285701,0.0
177,-144.68883426057707,1.3595499999999987,0.0
178,-143.96220190172306,1.4641928571428562,0.0
179,-145.10403750151602,1.4656214285714262,2.494999999999976
180,-160.50956454947328,1.4735714285714303,0.0
181,-157.1481788190395,1.4621428571428592,0.0
182,-154.49772653927582,1.47214285714286,0.0
183,-150.26810720173222,1.4103571428571473,0.0
184,-147.01352295572795,1.475357142857147,3.230000000000018
185,-152.008855383921,1.4432142857142907,0.0
186,-153.5950412135974,1.445757142857147,0.0
187,-156.79020689767023,1.4093285714285742,0.0
188,-160.43165665273776,1.4314714285714294,0.0
189,-164.12908736442455,1.4054000000000022,3.460000000000008
190,-160.19516376834162,1.3009857142857137,0.0
191,-164.0189985346871,1.3123714285714303,0.0
192,-152.9895515936189,1.510228571428574,0.0
193,-157.24344577261624,1.500228571428575,0.0
194,-163.15910635592252,1.4795142857142898,4.305000000000007
195,-162.2466316117721,1.4688000000000037,0.0
196,-161.68095283957723,1.4302285714285756,0.0
197,-168.45041986976804,1.3938000000000028,0.0
198,-169.2205916402966,1.4077285714285739,0.0
199,-169.35172551499195,1.427014285714289,2.3799999999999955
200,-172.65613523622247,1.3570142857142895,0.0
201,-174.55418459198359,1.4220142857142914,0.0
202,-165.4196458511362,1.5077285714285762,0.0
203,-164.1204850416764,1.4875000000000032,0.0
204,-168.09496390603823,1.522500000000002,3.25
205,-146.13584554547555,1.8432142857142841,0.0
206,-144.07339449541274,1.7349999999999994,0.0
207,-138.535148404374,1.8599999999999994,0.0
208,-141.69160305343516,1.871785714285713,0.0
209,-143.2163342381683,1.8946428571428555,3.4799999999999898
210,-126.95651808489637,1.8162285714285693,0.0
211,-126.04972225816016,1.8701571428571404,0.0
212,-125.50403435548111,1.750871428571427,0.0
213,-134.0841114434407,1.7047999999999999,0.0
214,-135.7502553878972,1.6790857142857132,4.967199999999991
215,-136.1858961184871,1.6480142857142823,0.0
216,-138.7637348380129,1.5537285714285665,0.0
217,-145.35151734016503,1.5456928571428534,0.0
218,-149.84018000513458,1.4858714285714245,0.0
219,-148.83085730411847,1.413014285714281,2.0200000000000102
220,-153.27760084925717,1.3601571428571393,0.0
221,-151.1937064636321,1.3158714285714268,0.0
222,-159.9755426795988,1.1955142857142838,0.0
223,-159.20581522943078,1.2333714285714268,0.0
224,-168.3475135790034,1.0840928571428574,2.0600000000000023
225,-168.406950197542,1.061235714285715,0.0
226,-169.30532761450314,1.0512357142857138,0.0
227,-160.7813720093704,1.291235714285715,0.0
228,-158.96646732436938,1.3855214285714286,0.0
229,-153.58853451156577,1.4726642857142878,5.239999999999981
230,-155.40124813219663,1.5240928571428611,0.0
231,-161.68305641798412,1.4921285714285761,0.0
232,-164.19423537348376,1.4676642857142883,0.0
233,-164.40539207189425,1.4983785714285744,0.0
234,-174.1135759400187,1.4769500000000042,3.2600000000000193
235,-178.40210023118198,1.4621428571428592,0.0
236,-181.21238346249146,1.4500000000000028,0.0
237,-183.2815388851735,1.2185714285714286,0.0
238,-182.44117480381615,1.1357142857142881,0.0
239,-173.7920010844452,1.1892857142857167,3.0600000000000023
240,-175.15811177858376,1.16357142857143,0.0
241,-174.93503166062703,1.2007142857142858,0.0
242,-171.09056243517367,1.2564285714285737,0.0
243,-167.75709126608433,1.2857142857142878,0.0
244,-162.26697425026467,1.4061642857142869,3.2363
245,-162.02308745842276,1.5104500000000018,0.0
246,-160.44199284138597,1.541164285714286,0.0
247,-161.38239905968885,1.4868785714285724,0.0
248,-161.0393044858019,1.4597357142857175,0.0
249,-176.18179446835532,1.4954500000000013,2.319999999999993
250,-181.19213838003125,1.5286642857142871,0.0
251,-183.35253208010016,1.5986642857142885,0.0
252,-176.66574478367863,1.686164285714286,0.0
253,-165.8842222639984,1.7365214285714277,0.0
254,-162.81970892049756,1.7593785714285721,4.424999999999983
255,-151.65467901598265,1.6989285714285711,0.0
256,-150.08404198068794,1.7010714285714303,0.0
257,-144.2912353125794,1.7603571428571436,0.0
258,-144.50245918758438,1.753214285714287,0.0
259,-139.65605906486653,1.7975000000000014,5.1200000000000045
260,-144.11186075713988,1.7435714285714283,0.0
261,-148.3236384902517,1.6707142857142867,0.0
262,-146.9932833627628,1.5960714285714306,0.0
263,-148.49884359815448,1.395000000000002,0.0
264,-151.7476822698227,1.3635714285714289,2.75
265,-153.3890857262291,1.3007142857142864,0.0
266,-159.6887563221372,1.277142857142859,0.0
267,-166.19690235690234,1.1507142857142867,0.0
268,-163.24765056254134,1.1928571428571442,0.0
269,-166.43727598566312,1.1949999999999992,2.319999999999993
270,-166.83419483101406,1.1414285714285686,0.0
271,-169.17451760121716,1.0538571428571402,0.0
272,-169.52467615886974,1.0852857142857093,0.0
273,-176.02260763561827,1.023857142857139,0.0
274,-185.6110483800923,1.0417142857142818,1.4199999999999875
275,-204.78928183155352,1.0024285714285668,0.0
276,-200.31880977683352,1.0552857142857082,0.0
277,-202.3161950480043,1.0767142857142804,0.0
278,-192.5460122699388,1.2645714285714251,0.0
279,-200.44397983027935,1.2895714285714266,5.210000000000008
280,-192.57590246234776,1.4102857142857101,0.0
281,-193.30387205387234,1.4231428571428535,0.0
282,-196.1693795129119,1.3374285714285687,0.0
283,-189.44212721585015,1.5359999999999974,0.0
284,-183.53497746549877,1.610214285714284,5.3700000000000045
285,-184.1932661643106,1.652071428571426,0.0
286,-172.56753519814797,1.758499999999998,0.0
287,-172.75560140729613,1.7927857142857115,0.0
288,-171.89929538437215,1.835642857142856,0.0
289,-168.51489769986804,1.9156428571428563,3.789999999999992
290,-162.99899362630018,1.8463571428571421,0.0
291,-157.1310803764311,1.9156428571428563,0.0
292,-156.70529114726938,1.7834999999999976,0.0
293,-151.65894566792602,1.8342142857142838,0.0
294,-157.5121266589518,1.7034999999999993,5.400000000000006
295,-154.6001128862057,1.4071428571428604,0.0
296,-158.5864721551445,1.2821428571428604,0.0
297,-164.72232969640677,1.2514285714285762,0.0
298,-162.63735697350776,1.1882142857142892,0.0
299,-165.91006423982864,1.1717857142857164,1.2700000000000102
300,-177.21481629971154,1.0705857142857147,0.0
301,-182.23712927014182,1.0473714285714277,0.0
302,-184.1183581766134,1.1009428571428563,0.0
303,-195.80438558402076,1.1009428571428563,0.0
304,-195.8340892323693,0.991657142857142,3.2399999999999807
305,-196.87534368775425,1.0066571428571425,0.0
306,-200.90894212732738,1.009514285714285,0.0
307,-203.00032970656108,1.020942857142856,0.0
308,-206.76453805052634,1.020942857142856,0.0
309,-213.02593852103735,1.0152857142857121,3.4081999999999937
310,-217.37399262395851,1.0567142857142824,0.0
311,-214.95938261575947,1.0445714285714263,0.0
312,-230.81962418659052,1.0320714285714274,0.0
313,-235.9953781355995,1.0381428571428566,0.0
314,-239.71943284817007,0.9779142857142874,1.6200000000000045
315,-241.06161925271053,0.9632714285714314,0.0
316,-264.3888179834488,0.8861285714285755,0.0
317,-270.91632131943527,0.862557142857146,0.0
318,-262.56333589235874,0.8832714285714331,0.0
319,-255.15109511470916,0.9029571428571452,2.789999999999992
320,-259.553077911735,0.9622428571428604,0.0
321,-260.6553075779382,0.9508142857142872,0.0
322,-241.07015702194204,1.0251000000000008,0.0
323,-244.36604581872623,1.0364714285714314,0.0
324,-231.1723914361022,1.1236142857142883,3.8899999999999864
325,-225.86413297740629,1.137899999999998,0.0
326,-232.32012557271372,1.1371857142857107,0.0
327,-228.8702463184402,1.1846857142857121,0.0
328,-229.5844747903554,1.251114285714282,0.0
329,-226.18374631207595,1.2875428571428529,2.3100000000000023
330,-229.1823908145403,1.3046857142857067,0.0
331,-230.3736989189152,1.3603999999999965,0.0
332,-224.97589858946887,1.3311142857142844,0.0
333,-212.99491668112583,1.4300000000000008,0.0
334,-215.0681431005109,1.3894714285714278,2.990000000000009
335,-212.16460384858595,1.4323285714285723,0.0
336,-211.00046609475544,1.3787571428571437,0.0
337,-204.05822942491085,1.4566142857142867,0.0
338,-191.8345203328982,1.4801857142857184,0.0
339,-192.055894875345,1.448042857142866,3.410000000000025
340,-152.9824023274563,1.8361785714285719,0.0
341,-154.1038322662861,1.7699428571428573,0.0
342,-153.49850258644113,1.793514285714289,0.0
343,-156.04523919961383,1.8578000000000015,0.0
344,-153.29153961939303,1.9220857142857182,2.170000000000016
345,-159.3000221154608,1.4067857142857219,0.0
346,-166.62929505953875,1.3525000000000043,0.0
347,-180.67841189217322,1.3653571428571476,0.0
348,-182.6990408259639,1.3910714285714343,0.0
349,-181.3803815321667,1.439150000000004,5.189999999999998
350,-146.58948458283598,2.1843999999999943,0.0
351,-144.63397679268496,2.34054285714285,0.0
352,-142.7697463898846,2.4119714285714218,0.0
353,-137.41515079774763,2.4391142857142785,0.0
354,-129.26296830981005,2.734964285714276,11.019999999999982
355,-111.0793409349529,3.351392857142851,0.0
356,-95.63896006940959,3.917107142857138,0.0
357,-94.20331128084563,4.159964285714283,0.0
358,-88.46819739728811,4.824964285714283,0.0
359,-79.56786752541724,5.40425,22.930000000000035
360,-55.522338537087066,5.578178571428585,0.0
361,-50.560220923096765,5.118178571428585,0.0
362,-51.79845280745694,5.126750000000009,0.0
363,-51.7661488143908,4.883178571428579,0.0
364,-50.96716471325039,4.469607142857151,14.100000000000023
365,-50.471066388442516,4.4531785714285785,0.0
366,-52.06460905802276,4.3746071428571485,0.0
367,-51.772604964298814,4.180321428571436,0.0
368,-51.51134197729754,4.005321428571433,0.0
369,-49.29780184286638,4.111428571428576,11.259999999999991
370,-49.69436922296612,4.0157071428571465,0.0
371,-52.35154436391335,3.98713571428572,0.0
372,-57.76889905611645,3.9828500000000013,0.0
373,-60.63782314408239,3.830707142857144,0.0
374,-61.430588334457084,3.684278571428572,6.270000000000039
375,-65.09793671781311,4.931835714285713,0.0
376,-64.14416781250746,4.938264285714283,0.0
377,-60.85794629987855,5.252907142857142,0.0
378,-59.552485388143836,5.317192857142855,0.0
379,-59.671770613563496,5.773621428571425,11.969999999999999
380,-58.35525819331244,3.881071428571423,0.0
381,-54.041069189679,3.8054428571428542,0.0
382,-55.56748547454243,3.8197285714285676,0.0
383,-55.79532485099549,3.5322428571428555,0.0
384,-55.71654277840371,3.2979571428571433,7.126199999999983
385,-58.82467435751622,3.1850999999999976,0.0
386,-60.5294191972371,3.237957142857141,0.0
387,-64.45248862166962,3.2150999999999987,0.0
388,-68.2029042445489,3.2708142857142826,0.0
389,-66.47485334842035,3.45575714285714,8.839999999999975
390,-67.69182856637538,3.3457571428571384,0.0
391,-70.84577399504353,3.3989714285714245,0.0
392,-71.2499064503522,3.418614285714284,0.0
393,-72.28373800916576,3.378614285714284,0.0
394,-73.63481931546715,3.309328571428572,8.0
395,-80.45038409926762,2.9538857142857102,0.0
396,-83.34316117082572,2.9303142857142865,0.0
397,-85.19944972345797,2.7906571428571403,0.0
398,-85.75180346398061,2.8092285714285725,0.0
399,-87.17980402415657,2.640657142857143,4.050000000000011
400,-87.09359946589073,2.6163714285714303,0.0
401,-90.96595307387943,2.5513714285714286,0.0
402,-92.76022933656222,2.4149428571428553,0.0
403,-91.51813766339548,2.1964285714285716,0.0
404,-95.34207495884328,2.1450000000000022,3.4700000000000273
405,-102.15947715466726,2.4392857142857207,0.0
406,-102.64242680477744,2.3250000000000006,0.0
407,-102.79985452203923,2.3800000000000034,0.0
408,-106.05246580818657,2.3685714285714305,0.0
409,-107.29200793704759,2.403571428571431,4.099999999999966
410,-113.22264660794552,2.298571428571429,0.0
411,-121.47302032235464,2.2364285714285717,0.0
412,-121.97004933051446,2.1850000000000023,0.0
413,-120.64167486803257,2.093571428571429,0.0
414,-123.76313920454547,2.243571428571426,4.1299999999999955
415,-124.0481927710843,2.085714285714285,0.0
416,-123.78132118451016,2.009999999999999,0.0
417,-125.85433975605419,1.928928571428571,0.0
418,-128.30758226037182,1.878928571428572,0.0
419,-130.48221485529942,1.8760714285714317,3.1900000000000546
420,-124.31106243154419,2.1825000000000045,0.0
421,-123.37382321086373,2.1353571428571456,0.0
422,-120.58049959709898,2.3314285714285745,0.0
423,-117.86255924170607,2.45071428571429,0.0
424,-116.29150306266662,2.5642857142857207,5.375
425,-114.40333975594089,2.8232142857142923,0.0
426,-116.06358668653743,2.686071428571434,0.0
427,-115.8473482062596,2.7689285714285745,0.0
428,-109.42039900648972,2.7882142857142873,0.0
429,-111.90889052167516,2.768571428571428,3.430000000000007
430,-111.88955996548736,2.434500000000002,0.0
431,-111.0539736506585,2.4866428571428605,0.0
432,-111.24382342354112,2.2320000000000033,0.0
433,-111.35015752379071,2.113428571428577,0.0
434,-111.94717303459346,1.9855714285714328,2.769999999999982
435,-113.4823127912316,1.8834285714285752,0.0
436,-116.80650113469464,1.8691428571428617,0.0
437,-116.1533909727469,1.9270000000000047,0.0
438,-121.30210104032052,1.7766428571428645,0.0
439,-115.97103918228248,1.8409285714285812,5.310000000000002
440,-118.67677396116414,1.9280714285714364,0.0
441,-117.26863951430911,1.905928571428579,0.0
442,-124.62272370452773,1.8651071428571495,0.0
443,-121.49165848871428,2.0186785714285764,0.0
444,-128.72852160372005,2.0447285714285743,4.497699999999952
445,-130.68651234787603,1.9939071428571455,0.0
446,-133.3443231608741,2.0117642857142886,0.0
447,-138.66276645064156,1.9667642857142889,0.0
448,-144.50014685989547,1.9721214285714308,0.0
449,-146.72538566535312,2.0678357142857147,3.6499999999999773
450,-148.7470523312966,2.069978571428574,0.0
451,-147.04061213193893,2.000692857142858,0.0
452,-139.1866062784031,2.194978571428566,0.0
453,-137.10448264048563,2.1821214285714268,0.0
454,-137.1358630997771,2.1721285714285687,5.400099999999952
455,-139.30639167024967,2.0892714285714282,0.0
456,-138.3814227076849,2.0636642857142857,0.0
457,-143.05487534690613,1.9040214285714316,0.0
458,-143.11213467888751,1.9170428571428602,0.0
459,-141.36572226656008,1.9235785714285742,2.6100000000000136
460,-136.16115125114874,1.9964357142857156,0.0
461,-135.12766465534574,1.999828571428574,0.0
462,-134.6077692498988,2.0569428571428596,0.0
463,-140.26895088934197,1.9955142857142911,0.0
464,-136.79099060590835,1.9333714285714296,3.0600000000000023
465,-150.2170379727904,1.7782500000000059,0.0
466,-149.58987579095353,1.8655714285714322,0.0
467,-154.10768121641084,1.7948857142857182,0.0
468,-150.46939237965742,1.8570285714285717,0.0
469,-156.7321875605827,1.8748857142857145,4.910000000000025
470,-161.90555182077716,1.8741714285714295,0.0
471,-165.11133634873917,1.820364285714285,0.0
472,-159.36564751820728,1.8446499999999975,0.0
473,-158.6477913982785,1.8475071428571417,0.0
474,-158.2214395773717,1.8396499999999978,2.829999999999984
475,-157.21835685921175,1.8135785714285686,0.0
476,-159.57802301923329,1.7882214285714286,0.0
477,-159.48288024077513,1.7861928571428547,0.0
478,-152.57251925249926,1.9854785714285705,0.0
479,-147.25308102060566,2.142621428571423,6.989999999999952
480,-147.15116817703134,2.1769071428571385,0.0
481,-144.23990976447854,2.26440714285714,0.0
482,-128.72415855882875,2.7501214285714264,0.0
483,-118.32526360855738,3.2336928571428536,0.0
484,-112.20239743977653,3.4694071428571363,18.5
485,-112.17805737448032,3.581785714285709,0.0
486,-102.81137158627155,3.8382142857142827,0.0
487,-102.12262347187327,3.9496428571428503,0.0
488,-98.38640628412048,4.24607142857142,0.0
489,-96.26681548139214,4.361785714285706,6.849999999999966
490,-93.3364206755847,4.485714285714274,0.0
491,-88.03890726899108,4.807857142857131,0.0
492,-84.03038221476075,5.164999999999988,0.0
493,-77.94753531277041,5.339285714285706,0.0
494,-70.36049788305877,5.767142857142845,15.069999999999993
495,-62.72469781535977,6.360714285714271,0.0
496,-61.74586285550952,6.037857142857129,0.0
497,-58.3565578730787,5.817857142857134,0.0
498,-60.01799847334384,5.705714285714281,0.0
499,-58.675360168664405,5.912857142857141,15.379999999999995
500,-56.143282197921145,5.644285714285709,0.0
501,-55.80438735636635,5.534285714285711,0.0
502,-52.19597014925377,5.570000000000001,0.0
503,-51.70919394526885,5.439285714285717,0.0
504,-48.931160229217866,5.53714285714286,9.870000000000005
505,-51.123080314497784,5.49214285714286,0.0
506,-48.91847648150173,5.136071428571431,0.0
507,-47.313147016217414,5.112500000000003,0.0
508,-49.272909977130475,4.956771428571435,0.0
509,-52.09354367128803,4.466771428571438,10.449799999999982
510,-54.28684114640344,5.317578571428571,0.0
511,-53.77731487567368,5.203864285714283,0.0
512,-53.11051099882698,5.126721428571423,0.0
513,-54.555104283316275,5.151007142857139,0.0
514,-54.440638049751854,5.406007142857139,10.379999999999995
515,-39.60749139690039,7.104321428571429,0.0
516,-38.733209749166164,6.8318214285714305,0.0
517,-37.34536204635582,6.692535714285719,0.0
518,-34.98069432704642,6.236107142857151,0.0
519,-33.526911554184665,5.879664285714294,7.470000000000027
520,-49.079921761723554,3.280457142857147,0.0
521,-52.64708200417312,3.1918857142857178,0.0
522,-52.60428324736831,3.3625999999999983,0.0
523,-54.31254739941934,3.329742857142857,0.0
524,-57.835003603238974,3.3326142857142833,9.409999999999968
525,-63.15192215019664,3.339757142857138,0.0
526,-69.07911606576116,3.215471428571423,0.0
527,-73.82894013079199,3.2014285714285626,0.0
528,-71.17969416130016,3.236428571428559,0.0
529,-73.36669367195623,3.145714285714271,5.610000000000014
530,-92.22147685914386,2.367292857142855,0.0
531,-93.68631950744332,2.355864285714286,0.0
532,-96.51166253735204,2.40515,0.0
533,-103.0547038816707,2.1680071428571432,0.0
534,-108.2576995619801,2.128721428571428,3.829999999999984
535,-104.6542729251246,2.3837214285714277,0.0
536,-107.19986059756593,2.20157857142857,0.0
537,-113.36721045045692,2.2272928571428565,0.0
538,-112.60150496589395,2.262292857142857,0.0
539,-117.85378884320828,2.230864285714282,9.449999999999989
540,-113.61520012774304,2.377292857142858,0.0
541,-115.30858816361548,2.3744357142857138,0.0
542,-112.80275843536609,2.49945,0.0
543,-113.39759922415692,2.4434999999999962,0.0
544,-112.42534850369309,2.422785714285709,8.075199999999995
545,-100.98771779732338,2.9974499999999984,0.0
546,-102.5297095117477,2.806364285714287,0.0
547,-102.23007929139419,2.86609285714286,0.0
548,-102.9640544738978,2.835307142857147,0.0
549,-101.35537528062449,2.8417357142857163,4.230000000000018
550,-123.47347616518628,1.6089928571428678,0.0
551,-120.98420927341466,1.7325642857142936,0.0
552,-123.00751230463652,1.6668500000000108,0.0
553,-125.14547918787856,1.709778571428578,0.0
554,-125.21531534771529,1.766914285714295,4.420000000000016
555,-134.03195778348697,1.7312000000000052,0.0
556,-141.98885732463617,1.7547714285714286,0.0
557,-143.38421662289397,1.902635714285712,0.0
558,-143.39882114302512,2.0396357142857124,0.0
559,-144.0151840544211,2.103921428571421,5.430000000000007
560,-136.03971043862174,2.379278571428561,0.0
561,-127.52511090439546,2.772135714285704,0.0
562,-130.3697390982924,2.7810642857142756,0.0
563,-126.39575592678203,2.9646357142857034,0.0
564,-116.4729320785178,3.341421428571416,11.009999999999991
565,-108.18586985158522,3.7199928571428456,0.0
566,-104.25867090983107,3.944992857142844,0.0
567,-100.20372615130752,4.113564285714274,0.0
568,-96.88771762650643,4.249285714285699,0.0
569,-93.28475279591129,4.4235214285714175,9.279999999999973
570,-91.73573653108102,4.453664285714276,0.0
571,-91.91851454109344,4.441521428571422,0.0
572,-91.11261143401822,4.3279499999999915,0.0
573,-85.65070905281691,4.463664285714279,0.0
574,-85.5426053793388,4.247949999999995,6.360000000000014
575,-79.42568499911643,3.4148857142857105,0.0
576,-76.2025834820951,3.5484571428571394,0.0
577,-73.42368425170983,3.424171428571429,0.0
578,-71.6022817475759,3.340600000000003,0.0
579,-71.54999498545787,3.381364285714288,15.760000000000048
580,-70.78458149609796,3.4047928571428616,0.0
581,-69.01228844150101,3.4219000000000017,0.0
582,-72.01890011182968,3.41154285714286,0.0
583,-74.37134745448417,3.1636857142857195,0.0
584,-74.24214420707051,3.12154285714286,3.5849999999999795
585,-77.26707140242151,2.90868571428572,0.0
586,-76.29213087212081,2.9629714285714335,0.0
587,-81.21303344965843,2.9590428571428578,0.0
588,-85.13412402675814,2.9204214285714323,0.0
589,-89.85412202505773,2.823128571428575,7.129300000000001
590,-94.8539307423634,2.465985714285714,0.0
591,-98.30903526641495,2.495985714285715,0.0
592,-100.49249824203808,2.423485714285712,0.0
593,-101.98956236752583,2.2477714285714234,0.0
594,-100.45870497876668,2.1677714285714234,4.234999999999957
595,-102.75556721297144,2.725307142857137,0.0
596,-107.17541696465688,2.571021428571421,0.0
597,-106.78779655628537,2.5917357142857123,0.0
598,-113.91079709351156,2.4582142857142832,0.0
599,-113.25614000260555,2.409642857142854,5.25
600,-116.6732864821234,2.3975,0.0
601,-123.11027465033574,2.2796428571428544,0.0
602,-127.35620777314081,2.295714285714285,0.0
603,-130.71212613420937,2.364285714285716,0.0
604,-128.46570182958115,2.4400000000000017,4.430000000000007
605,-130.49135634178097,2.2642857142857133,0.0
606,-127.9607057189227,2.039285714285711,0.0
607,-123.2625340110946,2.0364285714285706,0.0
608,-128.06775951529605,2.0035714285714255,0.0
609,-128.32148833974483,2.0028571428571444,5.189999999999998
610,-133.84426158510186,1.9400000000000017,0.0
611,-135.69025088983435,1.904285714285712,0.0
612,-126.52348563655286,2.234285714285712,0.0
613,-119.4341301560969,2.62642857142857,0.0
614,-115.32454598711195,2.8407142857142844,11.110000000000014
615,-105.16612965588352,3.516428571428569,0.0
616,-99.92527582748247,3.6614285714285706,0.0
617,-96.87218591140163,3.963571428571425,0.0
618,-96.0048198578143,4.144999999999994,0.0
619,-95.69303535532703,4.324285714285712,11.899999999999977
620,-93.88955776800192,4.5007142857142854,0.0
621,-89.05993621467067,4.817857142857138,0.0
622,-84.9152334152334,5.279285714285712,0.0
623,-83.65366646353853,5.352142857142853,0.0
624,-78.18651729559748,5.603571428571428,11.759999999999991
625,-73.93229415702405,5.764999999999999,0.0
626,-72.36797434930217,5.508571428571429,0.0
627,-66.63816708577814,5.212857142857144,0.0
628,-67.74206604728174,5.183571428571432,0.0
629,-65.55513209181466,5.068571428571431,10.45999999999998
630,-67.3672179409473,4.9921428571428565,0.0
631,-65.32954641797373,4.787857142857145,0.0
632,-62.42477432296891,4.65714285714286,0.0
633,-62.56597564988484,4.678571428571432,0.0
634,-58.6571558026676,4.5514214285714285,8.989899999999977
635,-74.22864882041347,2.841549999999996,0.0
636,-78.1691042153886,2.652264285714279,0.0
637,-79.40879256406205,2.5922642857142812,0.0
638,-82.79709351583286,2.4243857142857053,0.0
639,-90.85581577062503,2.485107142857134,5.21999999999997
640,-94.98890818730558,2.381535714285706,0.0
641,-95.47268026232445,2.504035714285704,0.0
642,-95.53740311936586,2.4291071428571342,0.0
643,-95.69088713267766,2.5055357142857093,0.0
644,-95.8067777081304,2.6609999999999974,6.149999999999977
645,-97.65739474980329,2.655285714285717,0.0
646,-103.53363950045699,2.8599285714285747,0.0
647,-100.19091011181881,3.1735000000000064,0.0
648,-97.85637196665822,3.469214285714291,0.0
649,-96.28077451887286,3.64937142857143,13.634999999999991
650,-98.78049829815542,3.736514285714289,0.0
651,-96.34854372436035,3.8515142857142854,0.0
652,-94.77500507686982,3.983678571428576,0.0
653,-92.82604535451159,3.9508214285714343,0.0
654,-92.22890637050756,4.220107142857147,10.25
655,-92.2107592903295,3.9393928571428654,0.0
656,-88.55452752919763,3.937250000000006,0.0
657,-90.57755639230862,3.8536785714285764,0.0
658,-88.92805678286024,3.6810714285714345,0.0
659,-85.92628677344221,3.6992857142857156,4.670000000000016
660,-85.99406458298981,3.469642857142856,0.0
661,-88.38624580772206,3.140357142857137,0.0
662,-87.16682749510491,2.8414285714285654,0.0
663,-85.62063576887239,2.655707142857137,0.0
664,-86.31967554076546,2.6578071428571337,3.704999999999984
665,-88.49289910673942,2.4906642857142782,0.0
666,-90.81394675087643,2.3192357142857043,0.0
667,-93.09052541470288,2.272807142857135,0.0
668,-96.90003139208729,2.0520928571428465,0.0
669,-95.11748151057017,2.1778071428571315,4.4599999999999795
670,-98.25460746512536,2.0428071428571326,0.0
671,-98.68985650433969,2.040628571428564,0.0
672,-105.76398495530495,2.0049142857142743,0.0
673,-110.904681171706,2.015271428571416,0.0
674,-117.60830206991828,1.99624285714285,3.589999999999975
675,-123.10679422986007,1.9733857142857119,0.0
676,-124.27135253865018,2.033742857142857,0.0
677,-131.4528299321579,2.053035714285715,0.0
678,-136.31742914464965,1.9837928571428611,0.0
679,-138.39152352501893,1.9866500000000014,4.569999999999993
680,-149.704209562986,2.193571428571431,0.0
681,-152.58625468572856,2.2128571428571484,0.0
682,-154.60089956645984,2.0979071428571467,0.0
683,-148.18156883751843,2.2550500000000033,0.0
684,-145.2672182448596,2.3450500000000067,5.860000000000014
685,-143.63810831255418,1.9934357142857095,0.0
686,-144.070616087188,1.8865928571428543,0.0
687,-140.32769376245793,2.05373571428571,0.0
688,-142.12937237796257,2.165164285714281,0.0
689,-148.8102380246773,2.222635714285709,7.099999999999966
690,-140.12667117170858,2.5810357142857066,0.0
691,-132.5899748151761,2.7917499999999955,0.0
692,-130.3584053447442,2.728892857142857,0.0
693,-128.2022699787426,2.8781785714285695,0.0
694,-119.32611974736389,3.213178571428569,7.899999999999977
695,-113.06611521572692,3.3688928571428556,0.0
696,-107.38236042420377,3.6627499999999964,0.0
697,-103.59381112000447,3.8248928571428524,0.0
698,-103.91209432711679,3.750607142857137,0.0
699,-103.97659205262453,3.8223071428571336,11.269999999999982
700,-92.52323757734206,3.7744571428571385,0.0
701,-86.61149493394494,4.2765999999999975,0.0
702,-81.42839140011684,4.518028571428573,0.0
703,-77.11389016728316,5.401150000000001,0.0
704,-71.57796865379937,6.112428571428572,48.02229999999997
705,-64.30199590095488,6.908142857142861,0.0
706,-61.14218611330031,7.9031428571428615,0.0
707,-56.841728003398124,8.651000000000007,0.0
708,-55.361026090160536,9.386000000000008,0.0
709,-53.51618367753468,10.150285714285717,23.609999999999957
710,-50.96878968363939,11.689735714285714,0.0
711,-46.436085060446416,12.594735714285715,0.0
712,-42.79997031877547,13.493428571428572,0.0
713,-39.8902411692423,15.087000000000002,0.0
714,-34.67666728887733,15.875792857142857,40.839999999999975
715,-14.319951293353531,18.49276428571429,0.0
716,-17.360139810271072,17.747764285714286,0.0
717,-14.402496688917646,16.83133571428571,0.0
718,-15.624218554638661,15.740235714285715,0.0
719,-14.476269074822614,14.035950000000001,19.42999999999998
720,-16.04515226970932,9.054392857142844,0.0
721,-18.300671947181833,9.230107142857133,0.0
722,-18.604896247194095,8.809392857142845,0.0
723,-22.491740722895575,8.602249999999987,0.0
724,-23.79946608388969,8.39510714285713,14.771200000000022
725,-26.071438999165576,7.42866428571427,0.0
726,-28.113155388519257,7.1308071428571305,0.0
727,-27.054301223737845,7.007949999999986,0.0
728,-31.10319061766901,6.833942857142842,0.0
729,-31.631787292470207,7.001599999999988,13.360000000000014
730,-33.53352187499712,6.671642857142847,0.0
731,-35.80661471170373,6.471592857142846,0.0
732,-35.526809534586874,6.500878571428562,0.0
733,-33.16866828665744,6.310164285714275,0.0
734,-35.62235078562648,6.297935714285704,13.819999999999993
735,-36.35297622243069,5.90864999999999,0.0
736,-38.29195465097521,5.891507142857137,0.0
737,-42.481903993690054,6.108292857142852,0.0
738,-41.16067313781381,6.602578571428568,0.0
739,-44.56996905545463,6.580435714285715,21.25
740,-41.678728430371244,6.899721428571431,0.0
741,-40.453584938277814,6.550078571428576,0.0
742,-40.759675800490854,6.63337142857143,0.0
743,-42.98129970922841,6.265100000000002,0.0
744,-42.767480483868766,6.096528571428572,5.920000000000016
745,-42.85170555404525,6.196885714285709,0.0
746,-44.164961159852815,5.861885714285705,0.0
747,-43.960973392425224,5.641528571428564,0.0
748,-47.68798854641503,5.055814285714279,0.0
749,-45.05820902853966,5.40759999999999,18.214999999999975
750,-46.291440652657,4.950457142857134,0.0
751,-47.63569410849537,4.926878571428562,0.0
752,-48.34896659083729,4.80324285714285,0.0
753,-48.498765636421325,5.875285714285708,0.0
754,-47.63077124091285,6.451714285714279,24.810000000000002
755,-45.358948527188645,6.793857142857133,0.0
756,-44.01879465476907,6.928857142857132,0.0
757,-44.729666531460715,6.852428571428561,0.0
758,-46.79297136917345,6.659571428571423,0.0
759,-48.644151362011634,6.995642857142855,18.899999999999977
760,-50.42304002227055,7.0863571428571435,0.0
761,-53.1370213064165,6.99635714285714,0.0
762,-55.869665110696594,7.427071428571423,0.0
763,-53.839462620209794,7.173142857142856,0.0
764,-53.76252635597923,7.448857142857138,15.079999999999984
765,-48.198215647584384,5.814285714285712,0.0
766,-49.14922440411538,5.4971428571428556,0.0
767,-47.639795775547846,5.502142857142859,0.0
768,-47.56980425592808,5.761428571428573,0.0
769,-47.52121360294339,5.566428571428572,7.199999999999989
770,-44.24973456564498,5.8721428571428556,0.0
771,-45.18272191017839,6.149285714285712,0.0
772,-42.49239371762193,5.732857142857142,0.0
773,-44.30433422379089,5.475714285714288,0.0
774,-45.72143900330841,5.111785714285714,11.04000000000002
775,-50.332539553090875,5.028214285714284,0.0
776,-53.40535720410195,4.786071428571428,0.0
777,-58.33173901931433,4.7267857142857155,0.0
778,-59.0552179262518,4.7675,0.0
779,-60.30635420622685,4.643500000000001,7.984000000000037
780,-59.22465594107381,4.53528571428572,0.0
781,-63.25255279916945,4.4774285714285735,0.0
782,-61.225663785238204,4.344571428571429,0.0
783,-62.328195884949665,4.370285714285716,0.0
784,-65.3026511672104,4.136000000000004,6.990000000000009
785,-66.10531278449731,3.803142857142863,0.0
786,-69.46544580285435,3.666000000000005,0.0
787,-72.22653233167168,3.6352857142857147,0.0
788,-74.01608743484769,3.670642857142858,0.0
789,-75.47387761041985,3.5327857142857146,7.149999999999977
790,-75.00627445876981,3.5202857142857136,0.0
791,-74.61484873535882,3.7224285714285736,0.0
792,-73.71386103184723,3.703142857142857,0.0
793,-73.67804961302436,3.610814285714286,0.0
794,-78.96470989549415,3.551171428571426,6.269999999999982
795,-80.95036275841011,3.4590285714285716,0.0
796,-87.445068698893,3.3111714285714293,0.0
797,-93.8909079431498,3.1333142857142855,0.0
798,-94.90531969912803,3.010457142857141,0.0
799,-96.40558846499901,2.9440285714285688,4.5
800,-95.91981425901803,3.0404285714285697,0.0
801,-98.5770778652668,3.0125714285714276,0.0
802,-97.28615206707138,3.0418571428571437,0.0
803,-94.658557576453,3.0982857142857165,0.0
804,-100.42041326743275,3.0807857142857205,11.269600000000025
805,-71.64683704688034,6.609285714285712,0.0
806,-71.07057416267942,6.724999999999999,0.0
807,-71.29384521079754,6.782142857142857,0.0
808,-71.21926910299004,6.957785714285714,0.0
809,-72.22650745383078,7.336357142857135,15.089999999999975
810,-71.45885546166879,7.813499999999989,0.0
811,-64.83067554088514,7.925642857142845,0.0
812,-61.93787680244156,8.13635714285713,0.0
813,-56.906882756472655,7.5568571428571305,0.0
814,-56.43969767165603,7.198285714285703,11.399999999999977
815,-52.79749396745474,6.946142857142844,0.0
816,-52.82451875801421,6.51036428571427,0.0
817,-53.0516014606405,6.241792857142847,0.0
818,-52.64868454968918,6.090364285714275,0.0
819,-52.07722212868301,6.056792857142848,7.550000000000011
820,-49.48487658196822,6.239649999999991,0.0
821,-47.24335537491005,6.471792857142849,0.0
822,-44.23564077922549,6.534007142857133,0.0
823,-44.84235017700531,6.192578571428568,0.0
824,-42.84115460279127,5.810435714285717,12.970000000000027
825,-44.225873119172476,5.9625785714285735,0.0
826,-48.84510196821084,5.5536571428571495,0.0
827,-52.52609692838618,5.396014285714293,0.0
828,-53.46965711181499,5.17815714285715,0.0
829,-56.56566610582729,4.9938714285714365,10.889999999999986
830,-57.34844590043724,5.361078571428578,0.0
831,-56.55123199029917,5.286078571428577,0.0
832,-57.67525616680796,5.459985714285722,0.0
833,-55.68069509840008,5.369985714285723,0.0
834,-58.62252603825639,5.137128571428581,8.680000000000007
835,-59.87212616215122,5.306414285714291,0.0
836,-64.00347908222585,4.97998571428572,0.0
837,-64.91238030104788,5.624864285714287,0.0
838,-63.88832112719422,5.96307857142857,0.0
839,-63.56113169729438,5.978078571428573,20.379999999999995
840,-63.67680369944181,6.152714285714284,0.0
841,-61.8303639530364,6.385571428571426,0.0
842,-55.48992654188999,6.8870000000000005,0.0
843,-53.92180970288373,7.244142857142857,0.0
844,-53.723013857503155,6.9277142857142895,24.94999999999999
845,-50.99040043224718,7.59557142857143,0.0
846,-51.8668905528653,7.480235714285714,0.0
847,-50.78039401393739,7.403807142857139,0.0
848,-51.343556044581746,7.589392857142855,0.0
849,-46.16105358810641,7.270107142857142,13.870000000000005
850,-66.41385895917989,3.611071428571433,0.0
851,-68.97549180755983,3.531071428571429,0.0
852,-69.04177853022864,3.5196428571428595,0.0
853,-72.50867418696515,3.476785714285715,0.0
854,-80.4274742019216,3.5446571428571474,7.7900000000000205
855,-80.49113257029295,5.125971428571428,0.0
856,-80.05809763928659,4.202399999999999,0.0
857,-80.5758818959357,4.252992857142853,0.0
858,-81.66529597497392,4.29779285714285,0.0
859,-80.81959636419658,4.524935714285708,7.430000000000007
860,-79.31995775799021,5.187500000000004,0.0
861,-74.93329832215046,5.436785714285719,0.0
862,-72.85411963989594,5.451785714285718,0.0
863,-72.72054451136194,5.548928571428576,0.0
864,-74.95329555513248,5.375042857142863,18.09400000000005
865,-73.86127138956347,5.326471428571433,0.0
866,-74.33480760489627,5.010757142857143,0.0
867,-78.4609659443613,5.230757142857142,0.0
868,-78.6206077587003,5.315399999999995,0.0
869,-77.23560216410618,5.088257142857137,5.399999999999977
870,-71.81470184934663,5.3340071428571365,0.0
871,-71.76038308065121,5.501864285714281,0.0
872,-73.79979294596569,5.554721428571424,0.0
873,-69.73030086454428,6.16400714285714,0.0
874,-68.42343160904201,6.806149999999998,19.04000000000002
875,-68.74778811113462,7.064721428571423,0.0
876,-68.10016153150269,7.411864285714278,0.0
877,-68.02098778117026,7.381864285714276,0.0
878,-67.91361645338293,7.613292857142848,0.0
879,-69.43949772237455,7.59329285714285,14.229999999999961
880,-65.53536116832211,7.3011499999999945,0.0
881,-64.73511323625067,7.0004357142857065,0.0
882,-66.86865408095173,6.551785714285708,0.0
883,-64.72813673701461,6.49178571428571,0.0
884,-63.47994802514519,6.053142857142855,10.970000000000027
885,-66.69239512569061,4.797785714285713,0.0
886,-67.19409658880494,4.732785714285716,0.0
887,-70.79070515632772,4.496357142857144,0.0
888,-72.71212616197917,4.173500000000002,0.0
889,-72.07491665032359,4.101428571428572,8.29000000000002
890,-101.72772509991371,3.3685000000000036,0.0
891,-105.93976424243031,3.392071428571431,0.0
892,-108.76006142493475,3.4006428571428597,0.0
893,-109.28680226714593,3.4627857142857175,0.0
894,-111.06594066288196,3.6049285714285753,4.420000000000016
895,-118.3636984114751,3.614285714285716,0.0
896,-120.13589384396467,3.8600000000000017,0.0
897,-120.58539968012161,3.7157142857142844,0.0
898,-114.30421765165319,3.955357142857139,0.0
899,-115.05110135011164,3.9749999999999983,11.144999999999982
900,-113.36958037083504,3.9971428571428556,0.0
901,-114.99087543117541,4.207857142857141,0.0
902,-108.31800250075122,4.533571428571427,0.0
903,-101.69301743109975,4.602142857142853,0.0
904,-95.53519183967525,5.011428571428569,18.74000000000001
905,-97.15477562946083,5.109999999999998,0.0
906,-94.58003769720028,5.265714285714283,0.0
907,-91.90165296120941,5.432142857142854,0.0
908,-87.88006338114006,5.57821428571428,0.0
909,-88.69874288522178,5.664642857142853,12.870000000000005
910,-86.93364191373054,5.582499999999998,0.0
911,-88.66119671803085,5.611071428571425,0.0
912,-88.71564815193814,5.347857142857143,0.0
913,-89.41988014448565,5.204278571428574,0.0
914,-88.14339216048596,4.992135714285715,4.170000000000016
915,-90.4623273206717,3.548564285714292,0.0
916,-93.11657290927451,3.4485642857142897,0.0
917,-93.67213279686949,3.1085642857142863,0.0
918,-98.15210099408431,2.916778571428572,0.0
919,-98.51470722072737,2.7639214285714298,4.310000000000002
920,-101.7380483704197,2.541778571428572,0.0
921,-103.8346068421322,2.458207142857142,0.0
922,-104.7847891088508,2.6796357142857112,0.0
923,-109.02874412613703,2.819999999999993,0.0
924,-114.6003878252281,3.1992857142857116,10.759999999999991
925,-113.09835379304081,3.386428571428565,0.0
926,-118.64164177474791,3.5278571428571377,0.0
927,-120.7475454168084,3.3485714285714243,0.0
928,-121.88167398488376,3.2628571428571354,0.0
929,-127.66207658824344,3.291735714285705,11.164299999999969
930,-134.96918099610198,3.21102142857142,0.0
931,-139.34341067899862,3.1810214285714227,0.0
932,-146.92452567710748,3.0753071428571355,0.0
933,-146.63653563170075,3.1417357142857076,0.0
934,-140.38027494699415,3.24173571428571,8.210000000000036
935,-125.54522404676771,3.0785928571428536,0.0
936,-130.03402882739906,2.979307142857136,0.0
937,-128.57496949133275,3.084307142857134,0.0
938,-128.6039013399603,3.125021428571419,0.0
939,-124.94925787876993,3.3497142857142785,7.0
940,-118.49888793985593,3.8982071428571357,0.0
941,-111.10448283541744,4.338207142857137,0.0
942,-110.34656527915733,4.487414285714282,0.0
943,-109.59365613501778,4.450985714285712,0.0
944,-109.34988004678522,4.534557142857141,18.329999999999984
945,-109.3387403178436,4.375271428571425,0.0
946,-114.82161055974726,4.502414285714281,0.0
947,-119.54802641793624,4.220271428571424,0.0
948,-119.42821843182577,4.066271428571428,0.0
949,-118.68565796518509,4.101985714285713,5.810000000000002
950,-117.17323277485684,4.186985714285718,0.0
951,-110.67824098853009,4.341985714285714,0.0
952,-107.18853013227837,4.263414285714284,0.0
953,-108.07900810689483,4.101271428571429,0.0
954,-110.14341067566474,3.511350000000001,6.839999999999975
955,-111.87831664806808,3.0752785714285715,0.0
956,-116.54028960782794,2.9232142857142867,0.0
957,-120.19687597573025,2.8683571428571417,0.0
958,-119.55283171177305,2.7081571428571385,0.0
959,-127.44658143917901,2.6438714285714258,4.6299999999999955
960,-129.51394623359946,2.587442857142857,0.0
961,-123.80108212730397,2.8110142857142852,0.0
962,-120.45862688216606,3.0063714285714247,0.0
963,-119.68163800368303,3.159228571428567,0.0
964,-116.97671770344837,3.1792285714285646,10.990000000000009
965,-117.75265501884208,3.1570857142857114,0.0
966,-128.87041911984034,3.0756571428571453,0.0
967,-137.5929768516661,2.9911571428571455,0.0
968,-140.38034483352223,3.103300000000002,0.0
969,-135.8654115015379,3.3108000000000004,7.214499999999987
970,-139.4425111000635,3.4008,0.0
971,-140.51569853509807,3.422799999999999,0.0
972,-147.37773265026695,3.3490714285714285,0.0
973,-146.34952602341156,3.447642857142857,0.0
974,-144.78337383725818,3.2933571428571407,3.340000000000032
975,-117.02463558486156,4.326621428571424,0.0
976,-113.50047601590846,4.560192857142856,0.0
977,-110.23342601084431,4.905549999999997,0.0
978,-107.33419117548027,5.246978571428566,0.0
979,-109.10642166354934,5.3455499999999985,16.029999999999973
980,-111.41979695001491,5.33214285714286,0.0
981,-106.17411212356976,5.824285714285716,0.0
982,-108.02982254480763,5.786428571428575,0.0
983,-101.94885649950434,5.915714285714289,0.0
984,-96.60235912397481,6.200207142857145,16.810000000000002
985,-93.61122450241838,6.397350000000005,0.0
986,-88.70791529343215,6.531635714285719,0.0
987,-82.47090224104922,6.763057142857142,0.0
988,-78.60032234060188,6.808057142857142,0.0
989,-79.66076670363623,6.105200000000001,15.319999999999993
990,-80.26917201239918,6.162342857142854,0.0
991,-80.04039568796365,5.94234285714286,0.0
992,-78.16699707707022,5.762342857142861,0.0
993,-71.56522617804573,6.049485714285717,0.0
994,-71.28511505397526,6.164485714285713,14.71999999999997
995,-70.13677811550147,5.77734285714286,0.0
996,-71.90177162644412,5.790914285714288,0.0
997,-71.09468286858178,5.369628571428576,0.0
998,-73.6733743642429,4.921492857142864,0.0
999,-74.76979691332541,4.61720714285715,11.400000000000034
1000,-77.08771224389082,4.3786357142857195,0.0
1001,-82.27250180545143,4.047214285714294,0.0
1002,-82.38217487404066,3.798642857142864,0.0
1003,-82.30709323407683,3.9243571428571493,0.0
1004,-84.73551613317493,3.8072142857142928,7.170000000000016
1005,-88.26041910470742,3.7487928571428597,0.0
1006,-89.24543564869566,3.5830785714285747,0.0
1007,-93.21270064307578,3.357364285714287,0.0
1008,-95.05942044965778,3.25165,0.0
1009,-99.02187490997851,3.2130785714285657,12.449999999999989
1010,-105.7102752669777,3.107142857142853,0.0
1011,-110.13871635011232,3.221285714285707,0.0
1012,-113.9630854766241,3.422785714285705,0.0
1013,-121.14680806820544,3.2834999999999916,0.0
1014,-122.53567226441331,3.3249285714285657,8.189999999999998
1015,-125.08792974188711,3.299214285714279,0.0
1016,-128.1443853200943,3.3074285714285656,0.0
1017,-131.10672245467234,3.117428571428564,0.0
1018,-132.9708847215183,3.093857142857136,0.0
1019,-142.98525285091657,3.089421428571423,4.7099999999999795
1020,-84.09191447866694,7.527107142857143,0.0
1021,-79.53010334335052,7.646749999999997,0.0
1022,-76.0897102508224,8.056749999999997,0.0
1023,-71.77239275038878,7.799607142857139,0.0
1024,-69.87793547365118,7.856749999999997,14.810000000000002
1025,-76.64743467480456,5.221621428571423,0.0
1026,-78.6722308083324,5.1909071428571405,0.0
1027,-82.3263294939266,5.121621428571424,0.0
1028,-83.72924288962416,5.474478571428567,0.0
1029,-82.80446275558403,5.365907142857139,16.60269999999997
1030,-46.531175689155525,15.3816,0.0
1031,-44.66053604072782,15.30242857142857,0.0
1032,-44.53086254479176,15.367428571428572,0.0
1033,-42.617722695269016,15.524571428571432,0.0
1034,-40.657867456204805,15.79314285714286,18.310000000000002
1035,-39.64589383717636,15.488142857142858,0.0
1036,-37.1875175622828,15.3844,0.0
1037,-36.573677751204855,14.862971428571427,0.0
1038,-35.62991926695269,14.891542857142854,0.0
1039,-35.84882287664503,14.394757142857141,18.939999999999998
1040,-38.26874660064431,9.33,0.0
1041,-37.503000816222006,9.562857142857146,0.0
1042,-36.563887559216276,9.762857142857147,0.0
1043,-46.52053389087212,9.53428571428572,0.0
1044,-49.86668978822101,9.193214285714289,13.900000000000034
1045,-51.17509765130031,9.670485714285714,0.0
1046,-49.89518610438475,10.015485714285713,0.0
1047,-47.528493799175976,10.525842857142854,0.0
1048,-46.6683609145296,10.290842857142852,0.0
1049,-44.880283369926865,10.462271428571423,17.18180000000001
1050,-47.07572496270468,10.39941428571428,0.0
1051,-47.94194724431616,10.251557142857138,0.0
1052,-45.62736697433825,9.73441428571428,0.0
1053,-43.45994322466959,9.584414285714283,0.0
1054,-44.64042836143633,9.594414285714281,29.069999999999993
